-7.2935
0.371381
3.76759
1.61543
7.30164
1.44774
-1.95815
4.63462
-9.52331
-12.8774
11.6588
15.5538
16.7286
6.86732
1.60613
-0.323368
-11.3864
-40.0219
-58.6584
-43.6845
-29.7498
-9.75342
8.25894
13.2028
14.8052
8.31208
2.54491
1.74345
22.2906
31.9477
10.669
6.80224
6.57382
2.21298
1.89717
0.206772
12.3999
28.0633
35.823
30.1573
23.7708
3.16934
-10.1957
-20.3473
-18.6559
-23.7962
-19.1547
-17.1661
-13.7062
-15.1173
-23.6586
-21.532
-4.09921
-6.91142
-11.5222
-8.7562
-4.41271
0.781641
4.61779
-0.030559
5.51647
14.2331
15.4535
10.6959
6.27841
8.86418
7.73098
4.95729
-4.47711
-3.01556
7.27095
3.95918
-4.9585
-6.38864
-4.31529
-0.811116
-4.71663
6.32939
14.3494
15.6559
9.83326
0.361347
-2.79446
-1.53593
-6.39449
2.15908
1.93394
-0.069284
6.64898
2.35635
-3.32049
-5.47105
-14.9015
-8.07037
9.21095
6.97422
3.24164
-0.474491
0.939857
-0.872505
-3.91182
-12.4539
-17.4973
-1.7998
3.06294
-2.88033
-4.18728
-4.73052
-5.4969
-4.67126
-3.59708
-8.90083
-3.32585
10.8272
3.6235
4.68943
5.46878
10.066
13.5849
6.27214
-1.30367
5.3126
7.85937
3.38932
1.8424
3.94832
5.04515
1.26552
-5.5467
-1.67635
-1.54904
3.4199
6.35634
-3.7409
-9.623
-3.2884
0.181572
10.4837
4.17747
-0.600886
3.26563
-0.466493
-6.59521
-26.1392
-43.3795
-16.8324
9.59575
18.7114
13.1441
-14.1749
-13.3084
3.13411
15.8461
11.2884
8.50229
7.01235
8.87465
-1.09369
-2.79498
-7.02318
-2.81536
-0.576074
3.48354
8.47197
11.2443
-8.94621
-21.8568
-18.3109
2.65639
15.1195
32.4427
48.3697
26.8484
12.5026
-0.401087
-9.9607
-18.3077
-37.4695
-41.1388
-13.5528
-11.6882
-13.9129
-9.61884
-1.16135
8.7461
5.88441
-1.24475
-6.65245
-7.22983
3.69044
-6.98746
-17.4025
-12.109
-5.51868
1.6213
-1.88291
2.51886
26.6369
27.9193
14.5519
10.9629
8.33559
12.1773
9.38636
16.9718
18.5993
14.3563
9.59246
3.85225
-1.43308
-6.11532
-15.8067
-22.417
-12.5337
-0.378538
6.78822
7.65361
-3.1628
-3.12003
-3.19685
-4.98077
-11.0351
-7.23825
5.36612
2.57473
-1.35113
-1.71
-2.12306
-4.99302
-12.5531
-7.97414
-4.51843
-2.80754
-6.41875
-3.4912
1.19552
2.6792
-4.59952
4.01779
10.4118
4.23838
1.48749
-8.60687
-9.81339
-13.9061
-21.1537
-0.458767
22.8803
25.9471
27.3737
21.6896
13.0793
14.3638
4.05501
-19.913
-22.7625
-43.8435
-34.5653
-17.5995
-13.5431
-8.38153
3.03137
8.1319
13.6019
31.1587
41.5674
37.2671
24.7777
16.3854
6.19119
-0.56779
-6.28406
-17.465
-12.7045
14.6729
2.17356
-5.1305
0.462506
4.44667
2.12802
-2.67425
-21.0917
-13.8206
-9.41626
-16.1268
-18.2748
-17.9247
-5.99439
-5.00481
-10.4886
12.8105
1.48591
2.10871
3.30297
-1.73481
4.93393
14.8685
5.02165
6.26019
6.59166
7.87482
12.9028
4.48301
-2.6173
-10.0176
-17.8967
-16.4795
-23.512
-20.8259
-8.37558
-15.399
-1.30796
8.06229
3.08122
-2.12712
18.2154
36.2289
33.3397
13.2033
7.24155
7.76919
5.98376
-3.8175
-13.4192
10.4578
18.288
4.97653
-5.31307
-6.39619
1.18934
-7.18879
-10.1264
3.04295
0.756404
-5.99129
-11.1728
-5.1175
-3.36133
-11.9046
-0.559716
-1.9881
-7.73311
3.66151
9.39597
0.314283
-0.107412
-15.1366
-16.777
-1.90745
21.4084
18.5124
12.0727
6.84053
10.8331
0.204624
-21.1385
-48.1008
-26.921
-2.53625
-3.62041
-1.9362
3.99258
5.85599
16.314
12.1514
7.42809
40.1276
48.0156
31.1306
9.13665
-6.01818
-18.1181
-46.0897
-53.9516
-30.3599
12.1176
35.0154
26.828
12.9276
4.95639
-1.0773
-10.3545
-17.8799
-20.3698
-22.4539
-14.9704
-14.5074
11.5888
25.2825
-9.49999
-10.602
4.36962
19.2877
22.4757
11.7644
-0.274061
-1.01253
-15.3945
0.527282
7.04836
10.9174
12.6784
11.1736
5.02822
-3.88541
-19.7843
-18.7856
-24.4103
-31.4367
-17.458
-7.34077
4.5638
16.9122
25.4118
32.2638
3.88152
2.77701
14.9827
2.50712
-2.79075
1.11642
3.53736
8.03446
3.75139
7.71172
19.2626
3.11432
-10.1196
-14.0078
-18.6964
-38.1832
-40.6877
-2.01119
19.2317
2.08963
-14.2195
-18.1906
-15.9609
-11.2005
26.0933
17.2376
15.6576
18.9258
16.1053
13.3703
7.4949
-0.979431
-23.6981
-35.4925
-10.3988
33.6912
29.4418
3.65857
-5.47791
2.80138
24.568
29.2359
15.4274
11.2391
-14.9844
-10.8997
-1.54976
5.77617
7.1076
-4.72885
-14.81
-27.0969
-49.6842
-65.8818
-27.2862
15.4078
44.1678
3.56852
-8.00702
30.7532
52.9967
34.6473
9.70657
-8.37449
-36.2254
-51.4173
-64.1506
-68.1759
-28.8063
20.1477
34.7787
30.338
33.7129
45.9396
26.2257
-10.4312
-18.4065
16.2319
19.8042
0.683161
-7.0386
0.72215
8.50184
3.49117
1.67549
24.9268
29.7119
19.9902
-3.88061
-24.2555
-22.0953
-16.3539
-6.85815
20.0666
20.7869
6.25303
-10.2701
-14.796
-15.0525
-22.1564
-23.4209
-22.9863
-16.3621
3.08507
7.79682
1.53939
5.51717
5.41918
1.76756
-7.28305
-24.988
-23.435
9.83838
18.834
14.247
13.0646
14.1415
5.94776
-3.85412
-14.8766
-20.1602
5.0142
13.7696
8.5063
10.5169
14.7242
15.9342
6.78108
0.222378
8.03224
11.7731
15.7107
4.68004
-3.45379
-10.7888
-22.789
-11.6829
3.56417
5.04581
-2.79436
-15.526
-37.9374
-27.5256
-12.0004
11.7825
13.378
5.73266
3.82196
0.128972
-2.04788
8.38429
14.259
13.3595
42.1706
55.1137
47.1976
-12.0978
-67.5469
-66.6553
-78.3873
-79.1683
12.1418
71.6307
48.5192
19.6682
8.26586
0.164352
-6.04171
9.85683
10.8199
0.868169
-14.1018
-7.69008
-7.78858
-26.016
-29.6289
2.28626
25.6563
27.8069
43.2284
53.9072
8.05645
-36.7263
-36.8998
-31.5691
-9.60693
13.9548
19.0236
5.58888
-4.67894
-3.18436
4.42842
-11.3428
-29.3532
-16.4594
-5.69015
0.605023
5.17782
4.22032
18.4004
35.9125
24.8646
16.502
38.849
25.1816
3.63321
-21.0886
-34.8366
-38.5551
-42.4339
-57.2676
-32.2785
-0.831289
14.2085
30.3599
25.618
-0.257519
-5.08195
-14.2899
-2.84036
25.767
46.6561
58.2516
25.7005
-0.981911
-70.256
-76.4584
-11.1016
19.5192
24.1173
32.1278
23.6816
3.78493
-32.3218
-46.4921
-27.6439
-4.08461
10.5727
20.7667
16.59
-5.16618
-28.2095
-48.7555
-31.6144
4.96291
44.8539
53.115
21.4574
3.43835
2.97579
10.1388
2.26622
4.45382
16.4276
6.27314
-1.71166
3.67665
9.41683
13.2934
-3.22368
-9.42952
-0.174759
-4.90994
-10.4894
-11.323
2.54799
10.5962
-7.06958
-15.4042
-3.83767
11.2804
12.187
-0.630176
-10.37
-8.41018
-10.9798
-8.16961
-5.98135
-5.12031
8.71106
-4.04726
-23.8741
-18.3879
-11.7341
-5.41744
-1.27847
-1.24963
16.4914
20.3207
12.0604
-0.537031
-3.7761
1.10144
-6.0517
-7.63193
17.5322
24.51
19.5639
13.3596
7.40526
-0.533606
-10.9403
-12.4692
-19.3271
-4.66681
8.73718
14.6685
3.69784
-3.18333
-11.7878
-11.9304
-4.70469
8.63826
12.8955
17.2493
11.4421
-6.58953
-24.2415
-29.7305
-2.87169
20.996
2.02139
-23.8865
-19.1093
-18.5131
-9.13345
-0.0996825
8.17492
25.1855
19.0168
13.9956
5.8759
-4.64763
-7.08312
-12.0715
-5.27325
14.7134
31.4976
46.4584
40.9005
17.5719
2.44793
-18.5926
-23.3949
-8.80219
-5.87936
-7.65871
-15.7125
-25.7203
-19.9018
-16.0189
-10.29
-17.4872
-7.3892
19.3642
14.5591
7.70053
0.659357
-11.7792
-42.4272
-67.3806
-63.5054
1.53988
34.735
22.4158
24.5586
36.0787
40.6447
29.3997
-1.65837
-23.4983
16.2557
75.6077
42.4351
-1.64939
-16.781
-14.8553
-10.5962
-16.4294
-8.92516
13.5545
25.6668
15.9848
-1.24879
-13.4905
-19.1328
-31.3412
-28.9748
-24.182
-9.72452
6.25499
-10.4452
-41.2085
-28.4196
-19.8009
-5.29576
9.88529
18.0289
24.9826
19.9607
25.131
33.3318
28.9114
21.8522
27.9824
26.743
21.2261
7.26254
-11.5717
-22.6428
-32.6229
-72.8492
-50.1173
-6.89526
13.8541
10.9016
3.72143
5.60126
9.28969
9.81032
17.9124
18.1643
8.93909
3.69346
-4.33214
-8.78869
-15.4279
-13.1918
-0.189789
13.4424
27.3288
41.0755
11.0522
-9.62839
-25.2017
-28.0694
-14.7592
-2.03577
-5.19964
-2.39217
-1.49276
-6.8151
-16.7085
-22.351
-27.0564
-13.4532
-0.612448
6.06409
17.1891
24.761
21.1584
16.7213
-1.98657
-19.1909
-3.12657
2.28537
-0.552858
1.92897
18.4048
11.1904
2.449
6.28209
-4.65773
-9.19828
6.38752
11.4818
13.2484
4.40644
-6.09453
-18.633
-20.167
-10.8503
14.9847
18.2357
7.72648
-3.1883
-9.58523
-14.9458
-23.2335
-10.7117
3.55234
5.82601
12.1875
15.0724
6.37143
-7.9046
-12.6755
0.721451
14.7609
17.6164
15.9642
19.4329
-0.201793
-11.9657
-38.8844
-25.734
5.31052
13.6249
24.9417
9.58869
-15.2896
-21.9675
-5.32024
25.0277
21.5641
12.7567
3.26988
-25.7053
-56.6484
-17.1168
20.4677
6.08164
-5.30109
16.2883
35.4865
22.2051
1.00003
-4.58592
-9.20227
-10.3829
-13.2167
11.6792
13.36
-4.73094
-8.70984
-9.51968
-1.5805
3.51712
11.2503
-7.60665
-19.2608
-1.57274
-5.45128
-11.1597
1.95176
-0.99513
-19.3252
-23.7118
-17.4995
-1.17825
-9.29472
-11
35.8837
55.594
28.6128
-1.03577
-15.8814
2.23166
10.9291
23.3221
2.10091
-20.6001
-14.1305
-7.30912
-12.048
-17.5453
-9.16473
3.94402
3.04628
5.1253
20.4617
11.6796
-15.9466
-33.8169
-16.0095
14.7987
22.0371
19.5083
21.9255
10.1787
5.98598
-6.83598
-0.875118
10.6845
10.4529
13.7077
9.148
-2.06364
0.123472
-1.18799
12.3581
25.8095
11.1455
1.37912
-6.22958
-11.1333
-2.49067
-17.2584
-31.9155
-56.786
-32.5901
-13.725
-20.6977
-30.3603
-6.63814
4.45759
7.28336
10.9529
18.1822
20.6954
16.5165
4.77994
-4.72823
-7.18877
-0.633647
-14.5647
-8.45132
12.3642
26.9017
32.887
20.3091
28.6455
25.6459
21.5739
4.58082
-11.0564
-3.55492
-12.9801
-34.6554
-32.6773
-21.3632
-17.4409
-16.9076
-16.8759
17.2555
36.7185
22.0474
-0.724785
-0.51972
5.17026
0.224013
-12.3196
-2.92347
0.0988962
1.12722
7.27438
-4.84402
-7.92228
-5.54377
-15.1422
-21.3659
-7.62034
-6.65929
-1.12673
-4.2784
0.120613
10.1248
18.2874
14.7984
9.39068
20.1244
19.5495
2.34409
-5.28621
-10.1051
-11.0391
-7.60694
-7.94748
5.61445
11.2135
12.7001
3.90488
2.65487
3.21032
5.70774
2.7473
9.35265
3.0367
6.41502
6.9682
-12.4423
-18.5523
-13.6683
-18.8214
-32.6338
-35.5571
-12.7784
41.3085
30.9009
13.8852
0.784278
-3.99178
15.0563
1.29803
-29.3656
-35.6414
-11.9202
13.2553
17.3245
-3.63755
-6.42306
-9.90675
-26.5733
-2.55276
43.0196
45.8804
31.1921
2.23147
-1.78687
2.88917
17.0886
12.8927
2.28372
1.88521
0.899266
2.78718
-21.3521
-36.6808
-27.7702
-14.5028
-8.85441
-2.84789
15.2861
15.7429
4.27179
0.233098
-7.58843
-3.5064
0.104047
5.61338
-1.88589
-4.50411
-22.4396
-31.2911
-7.14535
6.51827
-3.18316
-4.09465
-4.73222
1.46589
6.14599
11.148
24.9739
30.5687
19.4885
24.7795
24.9125
9.94581
1.25718
-12.5498
-14.9601
-6.28591
-5.4562
5.61179
-0.135448
-10.2193
-16.7883
-19.6735
-31.2004
-17.3026
-1.89372
13.5783
11.6988
-4.95674
-10.7534
-2.31943
-1.2257
-14.0271
7.3095
25.5094
14.9859
5.48402
-3.587
-5.23113
-14.8291
-28.973
-31.104
10.2863
20.0585
17.024
15.3508
18.676
16.8265
0.916332
8.47614
9.89582
17.6575
9.40506
-1.74114
-2.69641
7.2648
-2.34197
-6.4293
-5.74785
2.97525
9.9122
17.5472
1.30817
0.332601
-1.90426
-15.4891
-25.9013
-31.7387
-38.0051
-16.9267
35.034
24.0081
0.92306
-17.3211
-44.9207
-54.5843
-26.7275
-10.4623
26.5944
64.3909
68.7992
46.8908
14.1657
-12.4113
-10.3016
-7.95093
-14.5341
-12.6844
-1.17662
-7.64047
-30.5023
-33.2037
-4.0725
3.66436
22.7792
18.7189
0.983128
2.19831
-8.53591
-38.6987
-30.5771
6.075
10.441
14.2213
11.5935
14.6066
19.4671
13.6918
25.5841
15.6371
-4.27395
-2.60641
4.35039
-3.61668
-7.94452
3.5299
13.3265
19.6205
2.59149
-0.38468
-6.09593
-11.6258
0.506446
1.55276
-5.71476
3.16704
1.77047
-3.98828
-23.7164
-50.5115
-48.8979
-15.0009
2.4946
15.3303
24.9834
28.4701
15.1778
-2.02854
-10.1195
-10.7229
-1.30778
-0.481314
-4.58605
-1.8626
12.6147
5.35602
3.64441
4.90218
13.7386
21.2384
17.4001
1.20178
-5.09493
-6.01579
-4.08986
-3.64297
-8.27821
-3.7115
-12.0581
-3.08602
10.3376
-11.7514
-16.0036
-12.0564
-13.397
-13.9607
-14.6405
-6.21672
29.8615
50.0314
30.1983
4.32921
-5.19692
-1.58049
-7.39843
-12.5519
-5.4176
18.4583
22.4277
-1.18086
-20.4489
-15.8741
-13.5502
-3.78916
0.54494
6.70213
20.1556
14.5932
-8.30504
-18.3919
-15.0902
-10.3074
-12.0948
-13.1325
2.84395
11.9997
12.6947
-7.05899
-10.5363
-11.8236
-35.9198
-25.1853
49.1201
91.3199
59.779
24.6994
-4.23577
-8.50671
-29.5366
-33.2745
18.211
18.9557
-18.4069
-32.1511
-51.9156
-38.9302
-15.2391
-12.6908
16.5697
36.3705
31.2175
22.5956
-26.3196
-53.0363
-17.1257
7.79047
14.0008
9.74586
28.9462
28.88
-2.17954
-1.28434
19.2089
29.2556
23.293
12.5388
6.47138
8.69531
-5.86779
-17.6435
-3.07165
6.04834
-4.65436
-19.7373
-19.5381
-27.0148
-44.6472
-50.4269
-45.0657
-13.4406
2.83645
20.9751
48.0799
43.1944
30.0581
14.4776
5.48181
3.8332
-7.5524
-9.96143
8.51588
2.92523
-5.31398
-16.3931
-31.793
-24.3424
1.33486
15.5058
29.1787
28.3749
7.14731
-2.73277
-19.9227
-23.5934
-8.85575
-5.55709
-18.9883
-1.71803
24.3369
22.5956
9.64059
4.66332
4.46491
9.0577
-1.47862
-3.45829
19.1733
25.5757
11.5579
-12.0294
-21.6603
-23.6883
-18.7172
-18.2286
2.24781
8.61251
8.38258
5.34683
11.2012
7.00348
-5.31696
-5.90902
11.9911
24.6347
27.0388
27.1073
11.4654
-21.149
-45.7506
-68.026
-60.6869
-21.343
1.12733
13.4343
9.98276
10.104
15.8264
8.5091
-2.15945
18.3099
32.7924
23.3495
3.28448
-11.1886
-23.3823
-55.933
-66.0234
19.2297
85.7546
81.896
63.3981
28.425
-3.36114
-14.747
-34.6406
-62.802
-32.1987
10.5263
-0.241598
-14.1241
-18.483
-23.4153
-27.3922
-20.432
7.45236
35.2458
49.5417
47.0275
32.2696
17.3403
-10.006
-30.8023
-15.5255
-8.12403
-1.50601
13.9424
5.58056
-14.9219
-20.0885
-17.0301
-13.4649
-4.79188
-2.20827
-4.63931
-8.5798
-5.85189
-21.641
-40.3895
-42.4028
-18.0389
8.70794
27.2131
34.0335
36.5237
21.049
9.97516
4.12129
14.3506
19.0404
10.6285
5.37154
11.4796
8.34521
-0.0084876
1.73166
12.4934
21.9196
4.34566
-13.8487
-10.0191
-8.86698
-9.53605
-17.0413
-13.8196
10.3036
24.6738
13.4567
-9.33488
-11.4234
-3.62297
-10.9556
-18.8618
-5.30182
-6.02825
-8.83768
-16.8685
-23.644
-42.8126
-30.2739
0.437244
25.0448
25.9396
14.918
4.74992
12.1185
17.5756
13.9552
5.24435
6.7248
7.50693
7.71829
9.10497
6.21011
11.1938
7.12493
4.54901
10.4066
14.8562
7.31073
-3.77452
-14.906
-17.9489
-16.1286
-8.64356
-14.9563
-16.0812
1.12408
-7.29642
-15.0505
7.62993
31.9335
33.4716
1.50515
-40.1745
-43.7554
-54.843
-32.2114
11.7483
11.5987
4.09615
-2.89848
-7.38899
16.3128
23.7567
23.0328
26.5661
13.7563
12.0024
8.65676
-7.84112
-4.23624
1.95493
4.56863
18.4712
13.5555
10.9863
-20.9743
-30.3356
28.4012
44.4518
18.4327
18.8953
4.91467
-1.59043
-11.7489
-21.2291
-35.264
-28.3599
-6.131
-12.6242
-31.2135
-29.4977
-16.5676
0.721357
7.603
13.6191
30.017
25.9445
-12.9199
-25.861
-16.4217
-13.741
-4.1606
2.95119
3.90713
21.1129
28.322
24.9439
3.11185
-24.7479
-45.6655
-34.9374
-9.19961
24.2188
28.6704
35.402
33.99
20.4514
-2.92013
-12.574
3.92805
11.4562
-3.89477
-1.66464
17.8336
-3.16998
-6.55818
-1.24267
-1.09511
11.0864
23.037
15.8903
2.00902
-12.2908
-10.4217
-3.59536
-6.98674
-27.5691
-18.9422
-9.24835
-8.38459
-10.9557
-13.1239
-18.8617
-25.6323
-24.2675
-26.3092
-6.55285
11.0803
13.107
20.0805
19.1938
16.2889
8.87048
2.96148
18.0223
19.8525
19.1375
7.64367
-0.572735
-2.82672
-6.66659
-15.3502
-14.3423
-6.00562
5.9267
16.1958
8.26179
8.23021
15.8359
8.31648
-8.88248
-17.5095
-8.33093
-1.69408
-7.7693
-7.17186
9.31305
9.14114
1.07723
-11.7426
-12.1339
13.009
17.5451
9.55644
4.25147
-0.617047
-8.16671
-9.63169
-10.1539
-4.23118
12.9761
15.2709
3.27012
0.415525
-1.91065
-6.19628
-25.3579
-30.9805
-4.13186
4.32305
1.60706
-1.02803
-0.15477
-1.87995
-7.63982
-4.21236
3.54115
1.4406
8.43112
15.2722
16.5751
18.8758
9.29726
1.30658
-1.06707
-5.27139
1.02182
-4.0723
-18.0364
-10.7688
-7.69243
-1.00602
14.2019
16.8687
25.5603
26.8737
22.119
-2.10972
-43.515
-77.0928
-69.2507
-28.8385
10.589
21.5496
15.2057
12.3707
13.6383
10.1503
6.9423
7.3702
15.8768
24.222
18.6912
12.2835
8.85393
6.71998
-7.54781
-10.9966
12.6278
39.5902
22.6359
-20.2707
-11.5321
1.69382
-36.8534
-19.0374
-5.50511
-12.7966
-14.6315
5.34418
-5.53999
-17.4665
-18.574
-8.16188
-5.33817
-13.3816
-3.52129
13.6243
18.1428
22.8305
19.8262
19.9002
-0.991136
-23.0853
1.30442
11.0206
1.28731
7.77064
9.06501
-0.605378
5.06075
-3.95955
-26.2458
-23.1009
-20.1646
-5.12831
-2.50303
1.53999
7.92529
14.6173
22.6281
21.8638
2.89305
12.1448
17.4549
2.50545
3.52901
7.71608
8.74667
-5.55922
-19.3733
-9.01693
-2.77084
-7.00842
-5.68624
-8.06759
-9.45287
-16.5511
-13.0006
-8.18915
-8.47772
-11.2401
-8.82922
-7.91862
1.83041
-1.07917
-0.753614
7.46928
8.17271
9.51352
22.5765
13.8992
1.81416
2.91519
4.55299
11.3116
-0.252495
10.1774
10.8365
5.66669
6.67383
-0.585686
-5.56227
-1.33736
0.573139
-8.18119
-4.66639
14.1543
5.11172
2.50304
5.92147
3.25804
2.35896
-3.0835
1.01395
-1.09252
-6.41776
-19.252
-19.8317
-12.0828
-9.80907
-9.62355
-3.42247
-15.6124
-32.6055
-32.6569
-3.16394
33.5973
17.1538
-3.57169
6.05805
10.7918
5.38288
4.15855
-8.07907
-4.74387
-1.78792
-10.6424
3.52356
19.0748
20.5725
18.1916
7.53768
9.95171
19.2002
24.9016
-2.53531
-33.9758
6.79232
20.3476
14.7359
7.17331
4.40227
0.832
-14.5254
-46.4732
-55.2619
-21.5143
15.7549
8.83615
25.9254
32.4136
20.552
6.01235
-13.5476
-35.1261
-55.5891
-39.2733
-2.41425
10.7663
6.49924
1.4972
-8.52927
-14.6068
6.9951
27.7114
39.012
37.3375
31.7413
45.6562
20.6838
7.09235
-1.44447
-6.13126
-0.634356
9.59313
11.5557
-4.52832
-35.7355
-38.097
-24.1194
-24.4771
-14.6003
-3.33048
-4.0712
5.21696
9.93392
-7.54968
-31.3039
-37.0638
-27.7025
-33.8894
-17.0483
6.93592
12.1595
17.6123
22.8153
9.46368
18.8725
37.8471
35.61
32.1827
22.2094
11.5798
1.8832
-11.5197
-1.9982
9.92433
-7.61757
-24.0484
-23.8381
-9.93452
-3.22483
-4.15119
5.43782
22.1901
22.059
12.1279
-7.08959
-14.9248
-17.8553
-13.1291
-10.0374
-17.1265
12.0308
26.6526
10.0475
-1.09311
2.70839
-2.59495
-7.911
-11.2198
-5.56058
-0.782225
2.28944
-2.52335
3.23758
6.66162
-0.727686
-8.32376
-19.5945
-20.1953
-2.05493
24.1791
16.4157
7.59652
3.46363
-6.29904
-2.01105
-9.84589
-36.5951
-35.5717
-28.8513
-3.78432
12.4221
15.1429
14.3682
7.17907
0.253572
17.6573
28.8396
25.9933
13.7957
9.09704
-0.993951
3.10422
3.29959
11.4537
5.51097
5.1811
17.513
18.5423
15.8596
4.97195
-2.63921
9.49336
-2.8791
-25.1281
-42.6191
-22.0905
8.70694
-33.2406
-48.0852
-17.4464
-6.46032
-5.91364
-1.66428
-5.77773
-5.3177
6.40563
15.9001
10.1643
15.8208
12.2817
6.0302
-8.18996
-10.4076
9.4837
23.1901
-5.79975
-27.8564
10.2033
31.1344
13.7967
-5.99526
-4.08598
0.757681
-2.55049
-4.52574
-3.00046
-3.29186
14.8412
13.7779
8.04414
1.11886
-7.00077
-0.671307
0.994141
1.87313
-6.01833
-22.4754
-17.3011
-6.06877
-2.06269
1.80693
-3.63276
4.70687
20.0362
16.8604
10.4051
11.8739
4.53923
-13.1441
-17.7384
15.3615
40.3027
34.2028
21.3618
0.520161
-44.8078
-65.7257
-48.1686
-41.6282
-31.0493
-4.28134
24.3144
16.2682
-5.13291
-0.51887
9.75264
13.3167
11.3095
8.11572
19.8048
2.17336
-16.7172
-15.5
-0.812898
17.0585
33.3615
42.4357
45.77
29.1621
9.0149
-5.82573
-16.2191
-14.7726
-18.5369
-17.2779
-6.95125
-6.73373
-12.4274
-17.5459
-26.7321
-28.858
-27.5367
-8.25069
13.7139
17.2249
22.8053
24.3455
9.85043
5.09956
-8.41634
-22.7671
-9.64853
-1.01916
0.832355
-0.304812
-5.78751
-1.50871
4.13484
3.78892
-9.50687
0.528747
9.97675
6.13638
-7.96681
-20.5737
-17.3116
5.4669
15.3146
18.2944
22.1092
38.3163
26.3463
16.545
38.0135
6.7666
-10.3857
-15.4195
-27.5089
-10.7203
-0.212476
-9.28255
-14.4552
-16.6209
-14.0895
-7.67802
-1.48672
0.905618
-8.37165
-9.25931
-9.3229
-17.7232
-17.104
-12.7966
-20.8471
10.9366
13.3349
7.38862
13.3903
13.0291
14.9145
11.5567
4.03515
6.44446
16.9049
28.664
28.8737
24.3821
17.617
8.74718
5.42324
-8.80869
-23.6948
-10.2097
-12.9485
-18.9249
-24.1261
-40.5606
-49.2435
-50.1683
-33.9933
-8.74582
25.9905
27.9922
17.7128
7.99008
1.69649
-5.95098
-11.4569
-6.86685
2.6509
14.8999
31.4038
29.0973
32.1718
22.0765
8.5794
26.2391
42.0698
41.42
25.3527
18.5086
-4.0545
-18.6004
-25.22
-31.7573
-29.5011
-5.05548
-6.58822
-9.01346
-20.0291
-29.4282
-33.691
-34.0103
-33.8538
-25.7477
4.52223
34.5799
25.6272
9.04293
2.24703
-15.5545
-19.0049
-14.1272
-20.1747
-1.06772
18.1399
6.73427
11.5788
14.6525
14.6472
14.9593
6.39616
1.41721
4.04714
1.77159
-0.356033
-10.3863
-0.45372
7.47943
7.01318
14.003
10.7245
6.44894
15.5993
14.203
7.37221
-1.91212
-13.8843
-3.1351
10.6352
7.47726
2.13267
-4.3819
-7.18326
-3.23223
-11.3631
-6.55882
-5.66012
-5.76265
0.0298651
-2.87882
-4.86097
1.26738
2.5888
-9.20135
-14.2211
2.82909
11.4293
3.1497
-7.7177
-5.69294
-2.51809
-9.3693
-23.1965
-20.1879
0.554879
1.62362
5.8677
12.7572
11.1035
5.43182
0.684374
-17.004
-29.7791
-17.7899
34.5985
61.358
40.3174
12.1187
4.48462
1.97914
-4.35092
-9.56432
1.84071
12.108
6.95276
-21.3009
-22.2088
-18.5782
-21.8179
-22.7278
-6.33515
13.2554
27.9214
33.2526
-4.97457
-56.6946
-72.8516
-51.4375
-9.14347
3.73617
15.8718
31.6078
27.3577
24.6113
23.7156
25.5925
14.3309
16.1548
24.817
32.3748
21.2918
17.0521
6.8316
-4.39821
-18.0709
-12.0243
16.5886
12.5076
-10.8111
-17.7046
-20.5003
-24.3684
-27.7425
-23.0411
-4.93856
9.53592
14.0533
5.80625
-8.04142
-26.3298
-54.3703
-66.2649
-30.1632
4.91528
5.31474
12.0296
27.4124
30.3132
4.96143
15.4706
22.1871
23.3675
23.0757
11.8606
-0.291151
-9.02443
-9.95199
4.25804
6.40391
9.31356
24.7116
30.0977
15.9645
-1.46128
-9.40082
-16.2034
-3.77661
0.254529
3.29502
-6.82385
-8.72567
-5.81883
-3.96225
-13.5291
-25.9277
-4.14119
0.695134
-15.8598
-16.0965
-7.75954
1.75845
11.4657
1.84227
-1.26831
9.1576
13.1853
5.25612
2.07185
6.31298
7.01518
-5.35233
-16.6195
-4.2706
5.10529
2.89649
-8.53272
-4.89675
-1.202
-0.942033
-5.4085
3.64436
5.60853
11.6757
15.9253
9.59337
-2.64586
-11.4958
0.514811
9.32524
-6.66352
-16.0618
-13.8122
8.41228
24.5148
5.94923
-25.5892
-26.8284
-10.0288
22.717
23.8557
15.9392
10.5287
-2.7536
-31.8402
-24.4601
34.6824
54.0791
15.139
-5.64965
-4.86834
7.77341
11.0808
-15.8378
-27.6317
-7.20586
-6.58102
-11.8042
-4.19218
-9.71376
-8.05448
-8.1858
-9.43185
0.166973
11.4883
11.7271
-18.3654
-24.9668
-3.04933
4.69038
-1.58852
0.377483
11.8144
14.8894
6.39025
2.11311
12.3363
19.2295
2.09442
-14.4683
-13.9804
-4.50358
20.19
18.196
13.909
8.23571
-8.69996
-22.2199
-24.2831
-25.737
2.08604
6.8343
3.2255
-0.831728
3.2521
5.14065
9.49787
4.5452
1.02076
6.00846
6.50489
3.1067
-1.88466
-4.34803
-1.67935
-11.2575
-9.52133
-0.280616
6.03536
11.5919
6.40551
2.50064
-0.330048
-7.98203
-10.1375
4.63998
6.86671
11.1452
6.62682
-2.71207
-0.788933
-7.81844
-10.5183
-7.63814
-4.43002
3.72557
4.02038
3.92618
10.0713
0.307499
-8.83114
10.8323
11.6029
-0.363734
-24.1442
-54.0894
-30.2962
0.30106
4.15621
-5.12146
10.1819
19.632
9.78455
15.418
26.8239
31.3545
25.0522
6.0052
-4.8896
7.47756
5.88988
-7.42204
-19.5122
-16.8396
-3.58015
-1.24033
5.09722
-10.0288
-3.33152
4.42526
-0.711833
0.570797
4.39189
5.52513
9.62441
5.53929
3.52988
-8.4591
-15.6892
-31.4311
-47.5152
-42.8219
2.7184
13.0223
24.4535
27.5911
12.5719
5.10144
-1.79459
9.28917
10.3542
11.1262
6.66232
-1.88444
-18.3137
-48.591
-52.294
-12.3028
-7.60802
6.0709
19.1824
17.1331
12.3949
26.5263
41.5456
47.7301
33.3797
10.8696
-1.0842
-10.1845
-2.89946
1.75296
6.74294
5.00564
-3.64559
-3.32482
-23.1939
-32.2563
2.57679
8.06412
6.62194
1.38098
-15.0841
-21.5708
-31.4609
-28.0552
-10.0677
5.16149
17.5658
19.0146
3.13869
-6.96628
-11.7117
-19.8261
-20.51
-24.9775
-1.23681
20.258
24.9097
12.9981
3.80075
-0.558569
9.2199
8.97228
11.805
11.5308
6.67145
4.72765
-0.0880357
-3.24879
-4.26787
-13.5537
-9.68656
6.85964
14.4304
30.1176
30.3714
14.346
-8.39469
-8.84554
-6.64223
-0.353364
-2.39126
-6.60179
-13.6093
-16.2456
-20.5937
-15.045
-16.1969
-5.27946
6.50674
2.57978
-9.11779
-10.4671
-9.62913
-2.38432
2.19168
7.16633
7.98673
16.5623
28.0111
23.2911
8.72841
-9.0991
-16.4847
7.33661
7.92047
4.34388
7.9635
3.8174
-6.10764
-20.8558
-38.5388
-29.8092
4.37168
21.494
20.3083
1.14609
-5.92077
-5.24607
-7.5656
-10.8366
-3.8148
6.40719
13.1889
14.7157
10.9094
7.79185
-2.07522
-6.00105
4.11807
13.934
21.9874
7.75982
-5.79888
-8.24076
-18.5881
0.861445
23.3837
8.7721
-1.17699
-11.4961
-36.0305
-27.3957
7.88812
-17.2712
-15.6398
-7.55113
1.96543
5.31699
7.60414
13.0841
3.12387
3.91152
17.5006
18.2165
17.5117
4.32851
-9.03334
-6.10617
0.98558
-1.04634
-11.4753
-0.638031
-4.89271
0.693283
13.2798
14.9209
9.03063
-0.782928
-27.2931
-47.526
-25.1863
10.4309
5.24264
5.8427
8.60332
0.339295
-5.74543
-2.57983
1.6931
25.209
31.2925
16.9702
-1.2027
-2.02747
-10.8376
-19.4358
-15.7726
-2.41731
5.96066
23.5046
26.257
4.06864
-8.89419
-17.2937
-15.4729
-12.5603
-10.6375
-3.6922
3.74725
6.94277
25.8261
12.9415
4.90207
-0.277545
-7.32463
-6.15347
-3.63394
-10.9699
-12.8981
-12.6337
-8.3709
-4.0851
12.2314
15.8503
17.1899
21.6773
12.2775
-3.44933
-19.1271
-38.5385
-18.9133
-4.57542
-6.03625
-1.53006
-13.6963
-37.6718
-38.2489
-13.8472
14.4173
20.5923
20.5707
21.2366
23.0327
19.6276
16.9438
20.5205
32.789
52.2483
48.6973
33.6799
1.83382
-9.93132
-20.6567
-25.0404
-21.5422
0.951049
11.7318
-1.64641
-9.11161
-1.5675
-2.53194
-17.3204
-41.1224
-38.1303
-34.3521
-27.5768
-25.5324
-24.9013
-11.9491
-2.88614
-18.9277
-25.9498
-4.18385
-8.55524
-11.9089
45.4147
86.1959
54.8185
27.5833
16.051
7.41534
13.4268
9.91334
2.62439
-5.13434
-11.8856
-11.7557
-14.3219
-15.9685
-0.454663
7.54823
12.4249
4.19243
13.0006
20.2243
-12.6125
-39.7709
-12.1627
-0.348073
5.91326
8.02726
-1.8026
-2.63482
-2.30767
-0.402756
-0.836392
-7.69446
-6.91109
-6.74513
-8.57212
1.52542
4.23234
2.64046
13.7788
21.1515
9.86711
-6.68801
-6.89515
-1.06015
-15.2388
-5.8202
-0.827761
13.1471
9.25668
-5.54739
-29.902
-19.6547
0.096499
3.72661
-10.1391
0.425405
14.3687
9.18598
5.41778
7.69893
4.83683
1.15067
6.93928
8.8235
15.2589
18.4692
10.9978
1.66633
2.24747
-6.16934
-20.0284
-19.362
-11.3785
-3.03006
2.60028
-1.30785
-6.41711
-5.42515
-6.91799
-12.3568
-4.46223
9.41045
17.3429
18.234
13.4123
-3.18763
-19.2192
-52.47
-53.8286
3.33198
41.996
28.0646
8.36939
-0.900122
2.2839
-3.57669
-0.347875
13.6472
41.1679
41.3368
21.292
-10.3373
-27.2345
-25.7261
-20.0374
-17.4889
4.16149
21.615
27.6374
8.28532
0.912612
-2.14215
-7.86163
-11.7007
-11.5328
-16.7989
-16.2519
-20.7186
-33.774
-22.0428
-15.5479
0.287134
24.6574
28.5385
20.7922
15.45
10.3092
12.0837
10.0946
1.56144
7.96063
7.49789
1.60266
-2.67187
-6.41067
0.269015
-2.06371
-8.61657
-1.18843
-2.06343
-5.14141
-2.93074
-16.0894
-27.9039
-20.6961
-11.6924
-10.0883
2.12268
32.892
33.0366
14.9887
-1.07804
-14.7881
6.7108
43.7086
30.3781
-10.17
-3.38249
1.02547
-1.36869
-3.26671
-5.53756
-17.6903
-20.0271
-0.0306501
3.36186
3.60654
3.32949
-13.6376
-16.0581
-15.8558
-8.07197
26.3735
19.0554
-13.3088
-10.4112
6.88675
1.61222
-13.4686
-6.26103
9.67586
9.12755
9.80982
12.003
1.08658
-10.5389
-28.3456
-34.2112
-6.15792
6.87696
13.1473
18.5217
6.5138
-4.91273
-12.7182
-18.3033
4.239
13.8875
32.2106
34.5024
28.9588
21.5583
10.7309
-0.194988
-13.8088
-15.2317
7.94644
23.0677
-1.01962
-22.8072
-34.2085
-18.9698
-20.2936
-19.3547
-9.47186
-0.708672
6.76672
-0.192023
-16.3066
-17.7611
-23.8791
-27.5798
-14.4644
16.5465
25.6178
28.3392
21.5852
13.7099
13.6633
13.0263
12.7561
15.9077
9.57543
6.21234
4.14949
6.28473
4.46676
-3.20516
-17.5625
-16.5814
-15.9484
-10.5768
-11.2882
-15.095
-7.53337
-5.86149
-12.2261
0.254551
16.3576
21.5035
25.3971
10.8707
14.2823
13.7807
8.11823
4.17373
-5.7945
-1.18332
-14.9331
-44.0239
-56.6563
-25.2321
-2.13434
2.5962
-2.72077
6.90377
26.677
19.1401
14.1785
10.3395
3.34501
10.1825
6.95139
15.9348
24.1819
11.6155
1.36968
-6.7276
-3.07077
9.79827
11.5422
6.44267
-2.18026
-11.009
-7.95719
-9.41719
-17.0227
-23.2413
-32.8748
-17.8018
-4.2252
-5.51551
-7.58227
-9.13299
-11.7682
-4.21616
-1.70604
0.615088
24.7382
30.677
32.0697
12.9609
-8.08214
-37.1717
-47.4235
-32.6362
16.9726
53.081
35.9085
19.9902
13.9206
5.69786
11.1908
10.6656
3.60396
1.55121
12.7028
13.0194
-14.4552
-33.3251
-44.2195
-55.2948
-39.2107
29.3766
61.4511
46.2994
12.5233
-8.78892
-11.4349
-15.2928
-13.0809
-14.2182
-14.9525
-16.8756
-14.4177
-4.15913
-0.71491
0.465354
2.54678
14.9052
30.7832
34.7082
30.1431
3.63212
-8.93697
-6.48908
-16.2054
-27.5786
-17.0845
1.73137
7.75115
3.18254
-0.00572775
1.19544
5.23582
2.70876
-13.8425
-12.4505
-1.53727
10.1524
21.5455
26.9477
22.0744
8.0148
0.0530567
-2.57074
-10.4723
-44.1843
-46.9036
-23.5357
-6.09943
2.28714
2.50692
1.37736
7.61154
11.802
17.5683
13.2935
9.04386
15.6256
-0.498036
-2.15001
6.76891
2.51704
6.05966
10.4266
5.1728
13.3669
-1.1506
-20.9108
-11.7552
-4.25354
-3.20449
0.0244329
-1.22331
5.23437
7.38005
0.730422
-6.48087
-3.78167
-4.43281
-12.1451
-14.1846
-6.49041
-2.53714
-2.11007
-2.39535
3.42521
25.165
25.7299
5.41613
-5.53724
-7.08992
-8.77236
-12.0065
-15.1594
-22.0096
-0.501403
8.35377
2.46484
11.6122
15.4205
7.97037
-9.82824
-32.4845
-32.1741
-8.13668
13.9636
15.354
13.3942
13.334
11.1969
13.453
13.4966
0.535399
-6.3925
2.61186
-2.84859
-3.69558
-7.0957
8.48247
22.5833
17.4792
13.6247
18.049
11.1953
0.389558
-10.789
-19.0257
3.88178
4.37245
1.24493
-3.34125
-7.81921
-11.1142
-26.4246
-49.3955
-63.3741
-20.9815
2.6103
3.24949
-3.23643
-0.0908609
6.07139
-0.816945
-20.7717
1.86592
59.646
69.0037
22.1551
5.9683
5.45584
1.48347
-10.2771
-9.268
11.6677
31.3753
24.2528
-13.5716
-27.7513
-27.5462
-15.9421
-8.78828
-4.16395
36.8673
67.3922
32.9068
-12.8131
-34.5227
-24.786
-23.9608
-29.7802
-10.8761
-4.38082
-1.6338
-5.62634
-5.64661
-3.78761
-5.65314
-14.717
-16.4335
-8.09003
8.97192
10.3212
0.261426
6.12516
-4.72526
-12.8827
-0.630983
0.00249461
9.22938
17.8506
5.0175
4.00695
6.85124
8.79094
12.4063
9.48154
15.3783
17.6748
9.9335
3.24807
1.72143
11.845
6.92148
-5.3529
10.083
-0.388
-8.71864
-10.992
-8.22695
-13.6787
-29.8854
-16.0958
14.4608
10.051
10.2909
18.4013
18.815
17.961
-11.6263
-51.0776
-72.9923
-44.5271
3.82429
3.61121
-2.78393
7.58812
15.4004
15.2245
-1.76183
-12.484
-9.23017
-2.46103
-1.04496
4.13323
7.43785
10.9192
0.396625
13.096
51.8137
69.9114
56.235
23.4025
-6.48821
-7.25726
-13.0945
-21.0927
-27.4736
-24.049
-7.6379
4.15884
12.8764
9.04827
-6.27816
-11.9692
-19.8121
-16.2303
-9.25004
-19.1659
-24.8694
-18.2277
-1.18026
-0.289275
-26.501
-16.6166
10.3249
10.9755
7.91395
5.82087
2.86949
10.1597
7.44121
3.91871
14.7714
12.3791
7.76719
2.73677
0.998854
-1.69995
-0.764464
3.36227
-2.90659
-8.32061
9.28849
16.561
0.856157
-9.57122
1.39084
9.56639
2.23287
0.521025
17.3352
7.72481
-2.63074
1.85994
3.66796
0.252929
-12.1655
0.472653
1.21554
-5.22819
0.288449
1.14864
-10.9727
-21.1075
-22.5894
-14.7693
-26.4148
1.36692
56.0956
39.9827
14.1145
1.20316
-21.073
-8.86085
10.0783
4.44247
-9.91588
-33.1924
-47.6115
-21.3638
-3.77488
7.82156
12.2244
10.6833
17.4696
17.8288
12.9415
-19.7018
-43.2784
-13.2433
0.139817
9.80016
20.4215
11.3048
6.70919
14.3689
23.0809
20.3424
17.3337
-0.502891
-3.42711
-1.93986
0.755742
2.42781
1.6401
3.30844
11.348
9.93799
-1.87316
2.96022
-2.71825
-5.26767
-7.20779
-13.4998
-17.3216
-18.3285
-11.5558
2.49608
5.7847
-0.805603
-2.13458
-5.58085
-15.0745
-14.8124
-7.12665
1.00714
5.66939
6.88049
-3.29793
-10.5763
8.30735
1.74779
-17.2448
-4.78986
8.29777
8.70152
10.3863
5.4138
11.8049
12.2183
8.53459
-0.973547
-13.746
3.2418
5.48693
5.07764
6.15007
4.82338
0.305766
-8.50755
-17.1087
6.12377
16.3855
1.7206
-15.5717
-17.0713
-11.8971
-6.57667
5.10467
26.7842
32.3188
26.4832
12.392
-9.70192
-3.85911
-19.7784
-46.5933
-17.3928
9.03852
9.85137
9.80183
20.5228
39.9991
28.6213
-12.6493
-75.2268
-93.5715
-47.8827
15.135
57.0746
39.4794
28.7725
30.45
11.4497
-3.9044
21.6817
53.9128
27.6367
-15.8304
-37.7515
-73.895
-115.831
-70.6898
-22.8396
17.5358
59.3104
67.9615
41.275
6.32085
-24.6106
-23.7541
-19.5164
7.30453
17.2536
15.2415
7.75397
6.85447
6.2867
5.94515
19.6141
40.7703
42.3726
5.17722
-13.149
-10.3547
5.53667
6.19057
1.44502
-9.93205
-26.613
-25.201
-12.4838
-10.926
-7.03652
-15.67
-17.2831
-9.0803
-3.75383
1.8146
0.666698
4.10983
16.086
3.48918
-12.4453
4.7933
13.6185
20.2574
10.9799
3.01844
-15.8404
-19.4231
-10.8208
-10.0613
-11.2102
11.8501
7.05665
-3.7742
-3.19979
3.34483
3.64977
5.48259
3.29268
5.0794
16.7131
5.47333
6.6012
7.671
-0.414529
-5.9311
-2.82319
-7.21354
-1.57801
5.48504
0.758871
-9.08108
-10.2079
-11.0907
-15.7366
-16.7354
4.50248
13.8926
19.607
15.8401
10.7737
5.07402
-0.73377
-5.43173
1.55065
-0.474723
7.12989
13.2478
4.80538
3.46165
7.68739
-4.32645
-2.72507
-28.8898
-37.3926
-8.81905
-2.17604
-3.1787
-5.08389
-14.7486
-20.6545
-8.78547
1.23023
17.5804
27.2245
29.976
29.3733
14.1014
2.96555
3.40986
-0.751967
-4.46706
-4.36933
17.0417
26.6356
4.6495
-10.1234
-3.62125
-1.34064
1.20941
1.26752
-9.37568
-15.8339
-27.9859
-20.1131
-18.0304
-22.2397
-11.4134
-3.39244
-9.11773
-20.2579
-33.2673
-16.1687
11.9384
21.9119
25.6063
20.6635
15.066
18.2845
-5.5843
-12.4357
17.0929
27.244
15.491
-15.9222
3.72523
50.3812
31.67
-2.72934
-25.0047
2.35508
28.326
13.0967
-1.82946
-5.86225
-8.93076
-8.70356
-11.9958
-23.9039
-9.63354
9.77577
-0.565221
-12.1362
-10.6714
-9.5394
-29.043
-52.6545
-40.3342
-17.5558
19.9211
24.7257
22.0197
15.9856
4.76317
3.84877
2.50979
-5.54504
5.36382
11.8716
16.5973
14.0073
1.71194
1.67878
1.64043
-4.9378
3.35779
-5.10705
3.59558
14.1708
15.4099
14.2958
8.28275
-1.52376
-9.17409
4.72114
-9.60846
-28.7132
-51.1972
-22.6743
2.30063
8.65534
-1.90475
0.658644
19.1677
22.509
13.7428
7.15967
3.20583
3.67117
-8.4901
-2.92561
5.94643
12.3232
13.2585
-3.48556
7.42061
17.1862
10.7094
5.93886
-2.38816
-15.8513
-14.6636
-11.8807
-14.6782
-9.49729
-20.4908
-21.8122
-5.82269
-3.74426
-6.93088
-6.81355
-0.341614
-2.25601
-6.31516
-7.37421
-4.63241
18.5019
29.1563
13.4856
8.93957
14.4763
14.8372
4.26175
-13.7807
-5.35152
1.43846
12.4033
0.0494042
-9.91669
-11.8733
-13.1721
-13.8346
-11.4535
7.60726
25.9159
21.1502
24.8185
30.3878
19.4538
-0.346209
-22.3938
-37.875
-36.3011
-10.9504
3.41382
2.18592
-6.09168
-3.79181
-7.60967
-5.38864
4.03844
6.22773
12.4022
11.7732
-3.22551
-8.85488
-9.44076
-1.64583
0.656101
4.06357
13.6855
22.6521
32.0582
22.1124
-10.0893
-10.956
5.06463
4.3045
-6.02125
-35.1025
-45.1856
-23.6643
-10.8186
-6.89345
1.54581
12.4822
6.37244
-0.921607
-5.23359
-9.65268
15.6332
58.1812
31.545
5.97522
11.2295
2.27992
-13.1595
-14.7262
-1.1513
17.5479
10.5569
-2.60615
8.68127
1.9589
-4.15071
-6.21602
-14.4299
-17.9797
-14.0059
-12.5294
-24.1448
-34.5663
-20.3854
-3.58312
1.72988
1.53768
-3.08653
-2.1309
13.1571
29.6147
19.4934
11.7727
3.61524
3.01277
-3.14251
-13.381
-10.0571
13.6123
14.9629
21.6609
14.1845
-10.534
-8.36457
-3.0571
-12.2927
-6.85587
12.9624
14.0689
9.06001
1.03221
2.09125
0.940945
-4.07852
-12.1524
-2.07608
9.65908
7.79152
-1.46037
6.16715
4.07551
2.11528
5.21644
19.5728
-7.83199
-17.215
-11.4556
-17.9505
-19.0109
-17.874
-16.8316
-0.266567
-0.511062
-6.19369
-2.00585
-5.34048
3.73833
5.00261
3.42286
18.0019
16.9929
10.4415
7.88041
-0.901686
15.2942
6.15737
3.51786
3.69099
4.04021
6.05648
-4.89645
-27.0404
-49.3133
-41.292
-12.4304
10.6685
20.2673
23.4111
13.74
-1.4885
-1.46644
1.39469
-3.00234
-15.1681
-12.8126
32.6529
34.334
13.8359
5.87034
1.79977
8.71042
15.873
19.3249
11.7286
16.6933
0.945564
-13.7976
-20.3648
-20.152
-24.3013
-26.0347
-25.0439
-18.8414
-11.0346
-2.54866
-9.60814
-11.772
-3.87814
2.1256
3.25497
10.0632
11.2056
23.9532
21.4184
2.18517
3.23951
-7.58116
-27.1789
-13.598
35.2178
54.3484
16.1552
-0.808698
-0.137717
-4.11965
-19.9186
-14.7
-3.06165
-0.114769
-3.14991
-2.61396
3.54246
6.48397
7.84927
-3.42485
-8.51496
-6.66238
0.553199
-10.3474
-35.7974
-34.7417
1.34126
12.787
29.0703
35.9063
19.4167
13.576
-5.33149
-18.6575
-15.0439
-11.6891
0.353603
6.81015
6.6387
7.72389
3.79821
6.53874
10.2135
3.56838
-8.75884
-6.89975
0.243789
-4.2537
-13.746
-8.72182
8.16214
1.60881
-14.4352
-34.8413
-36.153
-15.3603
9.21574
20.862
27.1235
24.326
16.319
-6.18805
-7.48088
21.8236
22.9551
5.8846
-1.88032
-2.14149
-6.36431
-8.83779
-15.6378
-12.5206
10.9788
26.8849
27.5235
18.5256
1.8634
-11.5594
-26.002
-18.8135
-8.15875
6.62487
11.7245
-2.30147
-12.6685
-10.881
-12.4623
-11.1929
-3.11698
-5.67697
-2.0416
-1.82523
-2.2349
5.16094
4.20411
10.7846
3.9381
-0.827609
2.63677
1.55404
-1.67715
1.23053
-6.6496
-6.45944
8.13178
2.77084
4.85483
6.83501
-3.66961
-4.64845
-0.811333
-12.763
-4.15808
18.4512
26.7774
10.9766
0.417113
-4.36916
-2.54022
-5.39275
-19.3069
-9.35731
8.58156
4.52202
-2.53646
-2.96216
0.264416
-2.44181
-12.165
-2.98717
15.7778
20.8445
10.5861
-4.42399
-10.1975
-5.30299
-2.55656
-7.10916
-10.4619
1.97384
15.1441
13.1569
5.98724
1.47336
-1.01367
-6.08135
-17.4049
-2.66548
5.65932
-0.655831
-8.97003
4.83138
-1.01559
-14.6666
-31.7027
-7.2017
62.2452
65.3146
23.444
-27.1558
-55.7004
-35.5008
-8.3287
0.621869
-16.1701
1.71097
15.4387
10.7383
3.78879
4.73982
0.253141
-8.37755
-2.00415
0.111755
13.9593
16.6818
-22.5762
-25.8985
0.0387806
18.5369
30.7765
15.7978
1.46814
5.59156
9.43534
2.95821
-3.50081
-13.6151
-9.92871
-10.28
-5.0644
1.11252
13.233
27.6038
26.8056
-7.96118
-46.7917
-64.2911
-29.2333
7.02953
18.9245
16.985
10.7415
-0.48775
3.64719
-1.03517
-6.37115
0.504587
11.0066
10.1252
3.28086
1.04041
-3.70839
-4.07798
-1.46809
-5.1784
-1.38281
21.0629
13.5352
2.73867
5.10878
6.24812
7.24414
2.28946
-4.72315
-11.0141
7.30517
8.12329
-6.93332
-12.8042
-12.9202
-18.8978
-24.1671
-18.6312
-0.367694
3.21043
3.31787
9.27087
17.0562
12.3921
1.27988
-6.89271
7.87491
6.72938
4.80435
7.33998
2.8296
-3.66592
-4.51881
-3.16052
7.76554
13.6905
10.0744
5.94682
-3.22802
-4.57282
-5.5037
-13.4212
3.16245
3.13838
12.4141
15.7419
-13.8199
-20.8881
-28.7043
-45.2692
-49.0828
-15.1605
14.9909
25.1607
28.582
20.5802
8.61298
6.96117
4.08607
13.618
17.648
19.2482
2.64332
-6.29677
-15.2429
-6.37674
-8.20044
-2.27169
17.4354
25.3319
22.1913
6.79329
-1.19759
-10.3143
-25.2725
-14.4398
0.726372
3.09868
-0.79656
-13.5281
-15.7377
-16.3952
-38.6877
-32.016
6.05428
12.0195
14.9507
14.7802
11.654
15.6661
15.9069
1.26305
-10.9396
-1.06184
1.69211
0.342289
3.69811
7.50473
7.23473
5.84266
-1.96924
-24.1513
-26.5439
1.76047
44.6311
43.532
21.8388
8.81714
5.54079
8.04449
-2.20836
-4.02927
-23.8146
-50.082
-41.0867
-21.9166
-11.6874
-12.0195
-2.90978
14.4175
18.083
26.9891
30.4532
18.4008
-18.8824
-35.3661
-18.7164
0.333304
-1.42465
1.0649
6.24084
3.05856
8.38291
5.92763
9.83958
12.7757
7.4314
6.6422
1.53009
-6.97349
-4.90759
3.28007
7.64494
9.11411
-7.03053
-8.53933
-4.23238
-5.27813
-0.809274
-1.11149
-4.56582
-5.78436
23.9824
27.4032
11.1899
5.65671
-5.55822
-22.2875
-33.3172
-53.4671
-53.4813
-15.1323
14.6842
14.0291
6.13697
15.1544
16.0208
-1.73048
6.03025
22.9318
27.5573
25.9598
14.4021
15.5882
11.1639
-4.1779
-11.1239
-3.00396
14.6243
20.1728
19.5632
1.61825
-17.0159
-29.139
-42.499
-35.9354
-1.5558
7.55663
9.81654
6.47221
6.89253
-1.69884
-11.6623
-12.0281
-2.62193
-5.23498
-1.76332
8.0085
0.896521
-0.685832
-0.107205
-7.91041
-17.4583
-7.81696
5.91624
-2.18124
-7.11396
9.23117
19.0761
19.7575
15.7795
33.3033
42.5242
16.6875
-38.3796
-64.2641
-37.5683
-31.9199
-21.5827
12.6581
18.9722
15.9777
19.9394
10.1942
-11.3825
-20.5821
18.4044
53.4132
17.8456
0.226786
-5.16066
-6.12062
-20.3574
-20.3396
0.757579
19.0436
-2.57392
-14.2751
-2.19275
0.501204
9.83285
13.1229
3.91347
9.775
23.5704
35.0234
3.06178
-28.9234
-25.252
-19.1228
-12.4312
-29.3644
-16.6474
11.8835
18.8559
16.598
13.9114
13.4309
3.70994
-3.44355
-12.5138
-13.2311
10.5128
7.31314
1.79988
-1.68111
-16.6562
-24.3452
-19.162
-23.5284
-14.9964
-7.2408
-11.0011
-5.72989
4.5062
8.44396
11.1913
10.4861
17.2815
20.378
19.0468
17.9789
11.3023
6.11682
5.45796
-6.0746
-13.4693
-7.7471
0.691368
3.05083
-5.34096
-4.81131
-4.04743
-10.4821
0.824587
8.54008
9.2334
14.9266
5.50912
-2.81731
-2.5343
0.206664
-5.39502
0.157704
2.16435
4.91762
0.595663
-7.36565
-4.14241
-4.2631
-9.83938
-2.29824
4.5378
7.98297
10.5125
2.38319
-0.120997
2.07806
-4.19032
-5.88957
-15.0132
-13.6982
-5.40654
-1.92294
1.42672
2.02446
-0.0708042
14.1338
7.98545
2.48314
0.183253
-6.37342
-8.7713
-10.6236
-11.9007
2.90004
18.4801
11.4184
-0.565595
-6.9001
4.04159
7.80632
5.67272
-1.11935
6.55538
9.43782
5.59053
-8.26907
-4.20297
5.84241
-14.2892
-44.1501
-39.8744
-9.52706
14.3395
15.9857
-5.51314
7.17191
14.0446
5.10727
9.86272
4.60871
5.24767
10.5594
6.33151
8.21683
9.90734
7.19643
4.10744
-8.87468
15.6856
28.444
23.2939
10.3894
-7.81953
-18.6118
-14.7133
-19.9809
-8.86448
-9.54038
-14.7102
-10.2053
-6.8207
-8.42937
-18.9048
-20.5842
4.28361
-2.09112
-7.59962
-0.66458
5.99408
14.4786
13.759
3.6044
-4.85308
-0.977626
-7.87584
-27.1281
-3.34971
58.2396
47.6191
14.5085
-7.12885
-5.8489
6.54944
18.1375
7.05234
1.06027
-11.8233
-25.1596
-52.4635
-53.4565
-7.03953
16.6806
16.3449
8.8924
12.6329
25.9508
2.98188
-37.8078
-5.1374
12.4116
15.4357
6.85588
2.47305
0.332648
-9.15139
-10.5988
-1.60814
14.6056
27.9627
33.4441
7.74816
-2.89467
-5.30042
-14.3006
-13.9768
11.3896
4.37275
-6.68445
-17.2535
-20.1781
-20.1209
-21.1784
-24.3523
3.31833
13.873
18.8121
27.7308
27.9098
23.6581
14.0645
-6.78345
-3.59101
7.23383
2.76929
3.03011
-4.25961
-8.7826
-31.5474
-57.438
-54.7399
-25.3611
4.67156
21.0186
11.6038
8.445
8.00152
-4.49442
-12.7101
4.63476
14.2506
14.7843
10.7969
7.26977
18.12
23.8592
19.123
20.6137
23.5248
30.2379
27.3361
0.791963
-32.5442
-37.0826
-21.9138
-9.13686
-5.24677
-4.2384
-1.93674
0.258082
3.85046
-2.51673
-15.1114
-18.706
-6.14518
-5.60879
-8.98105
-10.5777
-5.07607
2.41687
9.94722
12.8838
11.6696
20.736
5.70868
-3.24447
-2.67437
3.39396
0.458418
-7.48426
-12.4924
-16.762
-11.9669
-4.59374
-8.1536
-1.53777
-0.76485
-0.628158
-0.0683473
-5.75319
13.4092
26.6055
29.0867
17.52
6.97891
-2.28101
-6.01852
-12.3362
-6.00928
10.0065
11.7809
3.85065
-6.82347
-10.4504
-12.3493
-18.5963
-17.396
10.0528
26.2347
27.9638
9.11305
-3.57185
-8.08096
-10.9004
-14.7951
-17.4181
-9.91333
1.49425
1.71575
-3.89683
-4.01917
1.19821
7.19434
3.48942
-10.536
-7.59516
6.53225
-1.38391
4.30017
21.9213
22.5356
18.9438
14.2387
1.60243
-0.872687
-24.1976
-50.7744
-49.6751
-20.0009
0.0926646
-4.5478
4.11312
43.135
48.1777
36.4349
22.9374
2.3912
-28.9361
-50.5496
-10.8774
40.2442
15.4524
0.313605
0.704406
-4.11753
4.23169
14.2365
16.4056
14.6816
-1.11428
-1.65559
-2.6562
-22.6979
-24.6293
-17.4793
-20.9362
-16.3859
10.4749
16.9439
-12.7437
-40.0314
-24.4799
-10.5383
-5.76405
-2.3972
1.53145
17.8739
38.0891
16.9013
8.55457
12.5009
13.6836
2.23827
-12.0069
-9.15773
13.9483
12.2459
6.27575
4.3139
-9.58667
-18.2417
-9.65127
5.87904
15.2101
14.8029
17.6009
14.0326
-4.29764
-13.3366
-16.3517
-4.44627
-2.11169
-12.8203
-7.7731
0.974273
-1.43533
-0.500455
-2.2898
1.58434
6.52259
1.19384
4.85873
1.17748
-4.72888
-1.10164
2.93359
-6.9162
-11.4589
1.78579
8.0681
3.54043
3.49713
7.22489
7.4475
4.43319
-7.9399
-0.413589
-2.16001
-13.227
-33.7732
-23.9544
2.41014
8.75188
-2.75762
-0.886308
4.10277
10.8498
13.3835
11.2332
8.47355
-0.286544
-8.39364
-4.04826
11.6206
16.6126
23.0213
13.4488
9.21696
14.4142
19.6872
-3.27986
-33.0095
-58.6006
-41.819
-11.4186
8.28243
13.8576
9.58518
-3.47882
-13.3593
3.30087
12.9057
20.3821
7.86112
4.79365
5.7262
1.05139
-11.1536
-15.2685
3.52633
12.6924
17.2116
27.1762
19.4891
-1.28814
-12.3573
-14.5694
-3.31862
-0.144615
4.76371
-2.61295
-11.1842
-20.7608
-29.4328
-29.3723
-19.1692
-13.2835
-2.33638
7.27231
3.94657
2.02991
-2.87379
2.8593
26.7593
17.8141
13.569
19.9772
18.2309
18.3606
10.5926
-2.04819
-0.00467119
-5.47841
-3.35212
-6.09152
-15.133
-10.5542
-4.46754
-3.44522
3.95623
3.67414
6.41781
6.04314
-4.60595
-5.07583
-11.7649
-15.5518
-8.87783
-1.29447
5.61944
5.08699
-0.400106
-0.66501
0.130341
-0.857961
-9.47999
4.3818
6.19961
8.00617
1.47527
3.67498
8.25755
10.8044
1.94963
-9.87678
-0.00999441
8.16212
-2.52231
-5.48613
-5.53215
-4.40783
-1.72527
-9.58365
-7.55739
18.9411
22.3632
5.93728
-0.68995
-2.01697
-6.26004
-9.6911
-0.872848
4.92986
-1.48519
-4.20122
-5.88905
-5.92749
-6.45162
-4.76396
-12.2737
1.60813
5.18667
5.72928
6.62773
-1.31614
-0.753664
-4.34266
-3.89549
-7.27378
2.59348
9.22323
7.50327
8.44148
6.94515
6.31359
2.16159
-6.54297
1.90389
-5.71609
0.156472
-2.50198
-5.75701
-2.62801
-0.320196
-10.1223
2.9163
5.02175
6.20849
6.66098
-0.801986
-0.000304539
-5.98877
-16.8829
8.14295
17.8979
12.642
9.03944
-1.48176
-1.25921
-0.434779
-8.25235
1.57079
3.71743
2.20119
-3.32652
-9.53367
-10.0252
-7.42521
-9.40443
-1.99015
3.06649
5.39496
10.612
-0.619796
-2.50569
-6.19401
-17.3261
-20.3186
-0.384611
5.01377
3.64025
-4.60751
-9.50035
-9.29248
-1.50937
2.71662
-2.19995
14.9138
27.5727
19.1301
16.6184
12.3705
12.8408
4.87877
-1.72439
1.14586
14.9994
9.01824
-3.37349
-7.02253
-3.78981
-6.79931
-16.204
-12.85
-10.9272
-5.92873
0.83427
-7.17896
-13.8619
-17.4908
-20.3362
-11.6848
0.933401
-1.71513
-3.69716
-5.03588
-0.876875
12.4465
23.6261
25.1694
31.4404
49.1825
52.6098
37.6453
19.1544
0.859286
-17.0836
-38.5241
-57.4537
-74.7447
-65.6069
-44.6233
-32.1804
-16.0863
2.45499
3.57758
-9.33778
-9.37404
5.89073
31.2634
43.6626
56.9838
73.7517
78.115
75.7285
56.883
42.3792
13.2318
-14.3105
-20.3406
-32.9025
-51.3688
-70.6935
-93.7966
-91.1378
-61.7903
-19.2644
8.33904
7.94176
-16.7696
-32.2116
-42.5809
-44.3533
-46.288
-17.4386
19.8322
31.8552
64.6216
101.443
105.309
98.4615
86.5889
64.8576
62.6224
67.1491
31.0974
-7.30346
-36.8452
-67.5181
-68.0933
-68.6121
-93.1109
-96.2535
-65.4541
-73.8357
-73.6344
-57.2124
-17.3407
46.5565
86.302
97.9277
134.281
158.43
165.853
137.304
79.5213
-10.5454
-147.671
-233.915
-195.898
-142.172
-90.0328
-25.131
19.1738
28.1603
2.35576
-22.8301
-50.571
-75.2163
-91.3196
-36.861
-29.6456
-86.3626
-65.8584
1.6859
40.4519
114.897
196.477
269.058
283.393
283.541
257.937
220.122
155.55
94.9676
60.608
-3.5511
-72.8694
-127.609
-174.658
-301.04
-289.221
-158.96
-121.981
-112.79
-74.5981
-45.1296
-15.689
-88.3986
-169.077
-180.719
-162.725
-140.782
-121.694
-59.2736
10.4022
63.9604
89.6986
125.423
121.896
97.7656
48.954
75.8553
125.189
126.152
139.863
175.813
219.745
261.984
269.58
172.789
94.8241
25.6516
-52.8902
-69.2661
-84.9206
-80.2731
-112.124
-134.885
-98.9586
-120.529
-166.973
-176.994
-169.033
-227.448
-193.053
-90.7644
-35.2357
8.30735
38.1532
34.2118
43.2153
89.6521
90.7556
-5.73531
-38.3341
-19.1801
27.1682
29.2275
28.6952
132.628
217.086
177.982
149.087
165.892
120.769
4.21164
-107.148
-120.09
-118.997
-93.9712
-76.8055
-48.2743
19.8181
64.8458
32.3231
55.1449
63.8274
60.2247
50.4154
56.8264
37.7761
-39.2719
-126.39
-112.77
-98.3657
-106.574
-59.2049
-69.6285
-75.6961
-46.8215
-40.1233
-61.2265
-52.3321
-32.3831
47.1875
82.9085
46.7187
43.085
75.0254
64.4798
9.55976
-2.88532
2.3961
-88.5136
-116.096
-87.2308
-64.9227
-27.1778
6.75688
33.0271
55.8658
74.0247
80.2622
102.243
90.2424
58.239
110.036
157.157
165.008
122.672
98.9388
76.5105
45.532
-6.3448
-58.6928
-61.5564
-52.5099
-55.7465
-76.7523
-80.3166
-79.128
-91.6948
-90.1495
-96.7791
-114.365
-133.244
-144.216
-142.293
-137.945
-84.3809
-36.3431
-18.0189
-11.0944
51.1669
88.4093
72.0655
71.4822
84.4675
86.5244
93.7993
114.965
113.881
55.606
35.9845
30.0005
-26.3472
-31.6651
-26.8999
-41.6042
-26.3506
-37.5482
-19.5701
-1.01262
39.7019
70.3073
32.9694
10.4607
1.62309
-3.27752
-0.326829
-35.5813
-79.8547
-64.609
-41.1003
-24.5491
17.6712
40.0331
59.8029
87.6314
108.607
127.69
86.0578
18.0385
4.97307
-6.02111
-17.5619
-3.52492
29.7038
50.2523
39.956
-21.0583
-72.1409
-58.4302
-29.2027
-11.9408
-10.442
-21.347
-65.1976
-120.552
-134.367
-121.104
-75.0081
-30.5472
-11.7004
23.3642
70.1723
72.3741
37.6687
7.23541
-32.3432
-29.522
5.69954
21.0823
11.5419
-10.7779
-31.8983
-8.13378
10.6812
15.1991
3.33046
7.45827
26.8726
41.1948
34.5996
22.3928
-2.74697
-2.2438
-5.08755
-53.1808
-60.9767
-21.3161
-5.36491
-15.0457
-40.1247
-30.9713
16.2998
19.0663
27.9378
51.6546
37.762
9.30687
30.0993
57.7083
58.3064
22.4764
10.9907
-2.43785
0.819957
29.6251
33.3361
33.6356
20.6692
3.49201
-9.8412
-31.2413
-39.3839
-47.7577
-66.8655
-66.9245
-41.5182
-6.93501
3.91946
15.4407
17.6184
23.123
53.9893
26.7185
-6.75384
-11.1951
-0.043542
-25.7521
-35.8184
1.3638
17.8634
1.45786
-5.62748
-9.27023
-13.5671
-14.6333
-5.9904
-18.2744
-23.1141
4.48354
38.8931
48.4593
-0.281918
-39.8403
-29.6176
0.331161
20.3501
33.1912
32.8634
17.8313
11.7766
7.90169
0.751337
1.64322
8.61464
-1.3028
-10.4256
-18.3784
-31.4397
-23.1535
-21.3766
-2.62714
21.3914
29.2973
19.2259
-22.7219
-46.3115
-4.37199
25.563
15.2415
5.60527
17.4093
30.3642
34.8482
30.6484
33.689
24.6889
14.4761
14.4818
7.17381
-13.7091
-45.5907
-81.7002
-32.8924
12.4356
5.90441
-21.7805
-29.0206
17.1744
6.07687
-10.7207
2.44224
-6.95581
-24.2236
-38.1131
-63.2462
-51.2879
-6.75165
11.9092
-18.0309
-18.605
35.7601
86.3441
66.1109
11.76
-17.05
-7.28859
-30.3189
-51.3973
-27.7392
-8.12499
-8.59608
8.78304
32.9058
59.0054
71.3039
51.8772
32.5441
18.2903
8.94561
-15.4326
-45.7498
-45.1211
-27.6572
-1.49594
29.6343
39.8264
47.3293
50.5004
37.8554
6.09154
-1.47314
10.6905
4.79078
-31.7176
-57.6122
-83.4231
-76.7491
-45.8352
-21.5875
-3.93199
-0.692127
15.6394
11.8186
-5.23527
-25.0385
-23.9455
-12.8305
-13.5159
-12.0185
-0.801425
13.0277
-5.72946
10.6593
51.0614
53.973
59.1112
39.6622
3.13132
-33.5067
-3.15729
41.3262
47.982
35.9469
-7.70539
21.739
42.2195
13.3603
-28.7993
-55.8135
-51.0997
-44.8105
-28.5839
-24.5211
-44.1273
-23.2043
55.407
68.2606
31.0545
8.28355
-19.0592
-37.8168
-58.3723
-67.7427
-44.8254
-35.7063
-32.698
-20.5012
-5.09584
18.1957
53.4277
75.308
56.2125
61.2515
82.3818
70.5784
16.5629
13.5319
15.0364
11.8701
-16.4716
-65.4883
-85.571
-74.7022
-40.0766
-20.8781
-2.36497
-0.931278
-8.46099
-8.30748
-7.82222
-11.1003
6.33164
21.7763
29.0933
15.6642
7.14331
17.9105
10.5245
-4.46253
-0.656217
-2.50734
11.6155
24.7878
10.1829
-4.12183
-10.7635
-2.82296
13.5247
38.3908
51.5043
48.9565
38.1034
9.741
-10.7426
3.81924
-12.4324
-45.7636
-53.838
-40.1759
-35.5136
-31.1967
-50.8282
-59.4537
-38.4779
-13.4445
6.35929
34.51
31.1365
11.6945
0.697926
-16.1726
-8.76691
-12.4598
-32.1022
-41.1728
-11.9824
15.7663
29.3834
29.3596
29.1142
44.1072
54.1435
37.0086
37.6848
40.8921
28.9016
21.1408
11.5505
-12.6963
-19.8476
-8.5567
-6.92854
-19.1975
-2.31782
36.9222
6.57698
-44.6452
-44.2168
-30.3465
-37.5741
-31.1711
-13.3947
-11.8943
4.09624
32.7937
44.2162
16.9414
3.83248
17.2468
8.93901
-1.17897
-11.8966
-36.965
-56.6634
-66.9896
-33.1156
3.07723
50.8099
62.0482
25.7817
-3.27953
-9.34225
2.82525
1.05067
-16.4145
-6.34448
19.8592
22.358
4.66518
-3.34999
-6.0168
-16.3235
-12.9658
-20.1807
-21.5384
-3.18586
8.43505
-7.2064
-2.3513
34.6855
54.6562
55.8618
45.6636
35.4483
19.797
-21.5779
-44.7272
-39.2988
-37.7726
-41.9285
-41.1077
-16.2736
6.81798
46.8476
60.9794
22.1989
18.9851
19.0493
8.01742
8.11065
-17.1814
-27.5149
-22.9993
-33.2317
-41.7903
-41.836
-44.8319
-26.3471
8.80573
20.9996
4.79412
11.5361
27.3801
13.8341
8.43822
5.51271
5.21947
11.5778
1.49035
7.21411
-1.41998
-21.4814
-18.3003
5.23252
32.6545
23.1522
22.9518
32.8461
46.9086
41.2049
23.922
-30.4551
-53.7005
-56.0167
-39.7647
-15.1451
-0.27153
-1.80157
-10.87
-18.5689
3.04624
9.34773
0.921561
-10.2308
-25.642
-2.68026
30.5626
29.9765
5.87085
-7.91469
8.9699
17.3942
9.72158
3.9769
-4.23985
5.21134
-2.78796
-26.7781
-13.9788
13.6444
13.3758
12.3998
18.2501
19.9464
24.2869
6.20536
-26.5743
-16.3012
-19.5418
-5.33409
-10.5844
-12.8831
-20.3194
0.466985
17.5053
-0.998468
-16.6862
-3.2536
4.26624
-2.4454
-3.48803
-7.99353
-17.6992
-10.4969
-20.1167
-4.21082
25.3171
3.94923
0.660306
16.1815
25.1936
36.4634
19.6723
-14.0834
-41.3768
-38.6256
-23.8616
-9.9524
7.54407
27.9522
29.2474
38.7522
65.0572
85.6366
68.5078
25.0574
-3.31942
-10.2059
-25.2806
-57.0425
-54.3245
-43.9976
-33.0662
-36.0883
-38.9747
-33.1231
-39.4958
-28.7641
-16.8247
-10.3362
3.70946
19.5111
23.9881
10.7393
-14.2918
-16.0014
9.56928
24.7677
23.0079
23.8327
36.8027
24.9585
14.3088
18.9017
27.4872
19.1822
19.5593
17.3306
10.8628
-5.51518
-24.2116
-30.0748
-22.7483
-22.4604
-0.607163
9.72133
-12.8553
-31.335
-19.5509
-6.96612
-8.44216
-1.95458
1.30921
4.68879
13.6349
21.5524
12.6192
10.0739
23.2808
27.9789
24.822
18.8323
12.7501
-2.16427
-5.75776
-7.33641
-31.974
-48.1751
-32.9074
-19.4488
-27.4812
-24.5974
-9.50771
-6.71783
-13.8227
-12.2061
12.4138
16.4795
13.0598
0.745491
1.29234
2.25156
-13.6714
-27.4053
-9.13351
17.2081
29.2458
34.9155
39.8399
40.4031
29.5499
33.5644
42.016
30.4496
11.669
-2.75986
-11.8314
-34.7244
-48.8593
-35.5451
-15.176
-2.74484
-11.0862
-13.0814
-18.7992
-15.0668
-2.71165
-2.50981
-6.30311
-15.7147
-18.3278
-3.82877
22.0253
34.0659
22.0153
17.3623
8.80221
-3.53682
-15.9666
-22.6553
-6.14957
-7.83512
-2.68248
-3.06019
-8.6846
-6.74375
-5.51865
0.12555
10.8346
-2.74591
5.95566
7.70601
7.13137
5.0124
-0.466436
4.4301
15.089
33.6902
28.3756
12.9356
3.83381
-7.07266
-26.6324
-31.7594
-3.05113
0.678693
-6.75821
-17.0257
-20.2232
-1.1977
23.2815
21.9164
-6.53401
-4.64703
25.5102
25.8431
12.5924
-10.6293
-25.0926
-22.0227
-18.735
-12.9133
0.0489877
13.6874
-5.0155
-14.636
-11.7537
0.202285
14.1988
18.7787
-5.36998
-11.1512
-7.49431
-5.86288
-3.97631
-7.68691
-3.36495
27.3105
37.4867
33.8927
22.7068
22.4674
19.5108
5.73897
-16.9206
-26.0353
-25.3987
-5.90961
-7.73469
-5.65048
-5.97408
-12.7513
-20.0443
-20.5338
-17.9225
-3.4585
-8.07995
-7.88063
6.2237
14.8046
9.28522
-6.13203
-10.7594
-8.60233
10.285
30.9064
35.6454
24.3338
12.6411
0.49842
-10.3855
-30.2846
-4.09728
-6.79632
-18.704
-10.5277
20.3935
16.1984
-4.70458
-22.303
-3.75181
25.4929
27.1622
26.4606
26.4345
6.20574
-0.993815
-8.08505
-16.2739
-11.5343
-12.3087
-18.2711
-28.8162
-26.8302
-40.0637
-49.174
-35.7311
-18.3551
0.794663
24.1006
43.7147
56.9167
64.6141
52.1589
50.3104
36.4229
25.6434
14.0511
-8.99319
-25.9989
-32.0891
-27.0955
-29.5863
-4.08751
4.94535
3.97614
5.291
7.93254
-19.0363
-44.3315
-68.2217
-76.8735
-54.5873
-38.7094
-34.2055
-10.2131
25.4703
39.6947
28.7628
7.39004
4.97018
26.0118
24.5222
26.8003
47.6318
40.0045
12.8186
4.45362
33.6091
65.217
88.5392
67.34
21.2468
1.15106
-23.3999
-39.5576
-56.2916
-70.399
-49.5758
-27.7104
-13.7134
-5.77383
-7.25514
-14.8847
-10.5213
-5.72496
3.98618
-3.2723
-15.6348
-29.6651
-42.0227
-46.3853
-38.9861
-12.385
16.5538
41.9337
46.7801
43.8817
25.1084
27.8025
32.9893
17.211
4.64705
5.57131
-5.05201
-2.27315
-7.07412
-10.8689
-7.15469
-9.23979
-15.8012
2.12815
10.7276
22.2706
16.0783
-10.6562
-32.9846
-46.6224
-20.5781
25.5288
21.503
11.9457
11.4644
-5.06558
-18.9465
-28.3855
-34.011
-4.59732
23.5182
25.9959
21.6832
44.7921
51.6841
10.9921
-4.259
4.08742
14.4649
32.6918
-0.849198
-40.6958
-31.3714
-27.2508
-9.54982
-10.8217
-18.8757
-1.42922
11.477
0.0264337
-17.9588
-21.8873
-33.1695
-45.8967
-37.963
-6.61107
4.20616
3.16999
7.43051
18.2411
33.4775
18.6704
14.9019
14.5704
9.94357
18.2076
21.3494
34.5903
40.368
11.0772
0.962831
-9.6756
-24.0405
-25.1347
-18.7836
-12.6418
-4.48901
6.96289
9.21236
-4.68417
-13.732
1.52612
-3.92336
12.302
10.8116
-4.92643
-1.38191
-12.9709
-3.61216
19.9345
19.4319
13.376
11.2068
7.54647
3.01205
-6.79356
-14.5913
-27.0169
-41.5516
-39.1106
-30.0933
-21.8915
-7.18351
0.432057
2.9041
6.73435
37.3452
24.0234
-1.53528
-3.3797
-2.31328
3.12658
13.5912
-3.53104
-5.23042
9.23387
9.01892
10.4244
13.5733
-1.99385
6.08401
13.0304
0.729931
-8.10317
14.5584
37.8555
27.1278
24.3585
5.59063
-29.2769
-39.0174
-11.5591
4.70582
-7.1684
-9.25133
1.07448
18.9669
29.1444
13.6673
-3.3941
-8.22968
-22.572
-16.9147
-22.6945
-33.1258
-33.5015
-33.4127
-20.4858
6.90008
2.99631
-3.51395
-6.36976
-6.50251
7.54035
4.83615
0.155551
-7.11057
-4.90057
8.488
17.8664
15.7444
23.1696
31.4434
30.5578
6.26326
4.60012
11.5416
6.5333
-8.62586
-4.22818
12.1145
5.88108
4.52753
12.1554
13.7199
-2.06213
0.952769
-1.72122
-1.52442
-4.3669
-11.5183
3.43652
1.07128
-8.65595
-7.14484
-21.085
-25.5262
-15.0213
-25.3157
-22.4852
-14.1628
8.85185
9.95199
18.3689
10.5919
-9.9928
-29.5396
-25.6704
7.66395
38.0811
41.5015
7.64328
-12.2218
-9.98399
-6.14025
-16.0945
-16.4969
12.4969
20.798
6.49245
1.67444
-2.23109
7.80736
6.85715
-7.10504
12.0224
28.2065
10.1609
-8.40913
-11.4106
-5.41018
-1.10816
-1.47316
-4.91703
14.3197
18.746
3.06685
-19.3395
-15.2909
3.7729
16.0739
4.17494
-7.63232
-25.9315
-19.4485
-7.3291
1.31224
4.64121
-12.1233
-19.0538
4.02822
8.90046
3.74285
4.46899
-8.08233
-1.65788
7.23994
-3.21147
14.9701
47.6908
29.6909
9.81357
3.70629
-4.34065
-0.936132
-9.74296
-21.1842
-15.5606
-0.462725
3.6484
-7.20788
-3.6349
8.51358
10.8233
-6.73051
1.98663
3.93342
-15.1285
-31.3603
-40.3484
-26.4649
-16.7534
-20.8546
4.69514
26.3626
33.311
21.6382
6.32986
9.94823
5.47817
-7.38224
3.62607
18.3894
19.0726
20.7909
5.77251
-4.81365
2.11064
-2.63604
-13.2207
-22.0342
-3.64471
17.0231
17.3479
-0.945053
-14.1648
-12.4633
-9.00684
-16.7725
-1.18602
17.5482
13.3837
7.99604
-0.389388
-4.53828
-9.66048
-15.8523
-23.8667
-28.2989
-16.7506
9.77568
18.442
11.2934
5.43482
23.6357
11.6445
3.07648
11.1806
12.6393
13.5473
3.29407
-3.18206
14.4803
16.7472
-2.98147
-27.1457
-20.7234
0.896668
17.3567
27.5307
14.6531
-4.76946
-15.0992
-19.4709
-30.9118
-24.0833
-20.8515
-22.4999
-14.858
-17.6898
-26.3152
-33.0831
-36.2047
-14.2729
12.572
32.0278
50.077
55.1189
62.216
46.086
14.3205
-3.94722
-11.2527
-14.8144
-13.9288
-9.22578
-15.2696
-7.56264
-4.18088
-1.40342
13.8706
35.5665
38.6407
17.349
-4.31742
2.85976
1.76779
-12.1848
-36.2247
-39.9128
-26.2589
-18.0431
-12.1859
-19.5788
-19.6314
-2.35426
17.269
23.2402
26.9324
32.7523
25.4817
-2.50313
-31.0762
-22.0826
0.104867
11.7205
6.494
-3.95275
-12.2822
-20.1982
-18.9953
-9.16682
0.996316
19.7447
41.258
49.0527
40.2801
14.1408
-1.67238
1.76466
-10.8428
-19.4376
-16.5572
-15.9287
-22.4626
-26.6681
-34.5644
-37.6
-29.5269
-4.4886
13.2171
11.8178
7.54484
19.5754
26.8957
24.7194
34.9433
28.825
4.6193
-29.3382
-34.7735
-13.2539
-4.41528
-10.2391
5.65729
15.3959
7.25319
14.6021
12.0983
-3.4352
-4.60364
-7.52585
8.21116
5.92468
-9.90142
1.42507
6.42779
-10.2909
-19.1125
-4.00654
21.213
8.14818
-12.5058
-18.8469
-15.9108
-8.46888
17.0971
24.4287
19.7842
31.7764
28.5078
31.3334
23.8481
-0.907348
-12.8221
-12.9691
-32.9932
-60.6969
-29.2892
-15.7907
-14.1301
-1.56538
-2.91188
7.82162
12.8116
-3.56637
-19.216
-8.73229
-5.08161
-19.1902
-26.8871
-34.4398
-27.1796
-4.48039
2.7321
17.2303
36.4544
80.2568
93.807
71.7389
25.1138
-6.60567
-14.9841
0.0992245
7.73645
7.34051
-12.395
-32.3122
-31.314
-30.9461
-13.676
16.2765
-5.32739
-18.2546
-8.14276
-1.24094
3.07818
-19.1157
-43.5297
-25.8913
-13.7747
-5.12968
9.72618
5.71822
-5.68876
-7.32156
10.0167
20.9113
34.0504
37.8172
31.5492
21.185
15.0846
-7.53016
-17.6473
-37.4557
-26.2652
-7.98918
-0.767141
-4.603
-6.523
-1.25662
-1.29475
-7.26914
19.1767
25.4135
14.3454
11.9302
12.8778
12.6203
4.9231
-9.75452
8.62036
37.1178
14.7063
-11.7967
-31.9657
-21.9541
-16.0138
-18.7736
-11.5144
3.6662
14.9549
15.4533
-2.02076
-6.69841
-13.1397
-21.0751
-21.1793
-22.4148
-8.62158
6.23795
11.0505
-4.24834
-1.7111
1.15873
-1.62216
-4.67767
-14.1737
-29.6394
-11.892
3.34629
7.02343
22.3753
24.0146
30.1562
55.019
53.6128
26.1943
14.7662
8.81661
2.6688
-13.927
-11.9089
-0.868818
-13.9635
-13.6895
-8.56526
-18.4765
-15.6364
-10.1142
-8.00532
-11.5302
-34.8271
-35.2575
-19.3196
-31.6551
-26.6299
7.87354
21.4747
26.725
27.5601
9.72542
-6.38695
-8.81221
-0.222247
2.96689
13.8068
21.6401
14.5944
6.15805
6.277
28.3646
40.5956
34.5278
26.1282
11.5341
-11.3267
-29.2535
-38.5121
-28.099
-28.7231
-21.7535
-12.4469
-9.4114
-5.7564
-8.38104
-14.1076
16.1466
43.0355
28.106
12.9795
13.2458
14.6298
8.3521
-12.5325
-27.8854
-6.56717
2.74802
5.06324
-4.8421
-0.212755
-13.1546
-18.9366
-19.4446
-17.069
-5.43285
-9.52415
-19.6425
-14.1671
-0.944507
8.49662
-1.51336
-9.08059
-8.694
8.52424
22.7966
14.494
2.23358
6.09947
2.50179
-11.5206
1.19049
31.7479
45.0992
31.1122
22.4036
34.6903
46.7877
41.2147
17.2642
-10.3218
-8.43538
-21.3848
-41.7095
-54.8163
-48.052
-39.5764
-23.6791
-19.9859
-13.8746
-3.14687
1.86383
-3.76407
-15.2375
-9.31031
-7.55433
-13.4631
-5.15559
-11.4568
13.8907
41.5299
29.5029
28.3614
0.888327
-13.7897
-0.108513
1.42619
-1.93578
16.1847
29.4005
34.2066
26.2977
30.5858
38.345
36.93
13.5962
-13.281
-43.2671
-45.4278
-43.3266
-52.0953
-45.1136
-23.6398
8.78101
12.9339
-0.440448
5.58672
15.1494
6.77064
-20.402
-11.6631
-5.55857
-12.1203
-7.78625
5.27291
29.8476
34.2158
22.9697
20.6318
25.8296
15.082
-4.93897
-16.8042
-12.5925
-4.39898
-0.591059
-10.569
-0.465171
-0.49485
-2.38552
-10.2866
-5.29603
-9.95576
-18.2161
-24.1118
-13.1537
13.3624
9.30949
-8.35318
-6.11136
4.42831
-4.65428
-9.82449
13.3574
21.237
15.8431
16.5385
5.62065
-0.947996
9.68063
13.8699
12.5713
11.6645
14.2208
22.0334
8.14345
-8.01106
11.259
24.1693
4.82283
-31.6305
-40.261
-11.6074
-21.1065
-25.893
-7.47035
-2.46593
-13.2309
-18.2033
-18.8497
-9.06042
-6.71601
-15.9137
-24.6911
-28.288
-23.0004
-6.13566
12.6299
20.0558
37.3549
72.1509
65.2629
17.4958
0.887069
-11.0804
-17.4883
-1.70121
17.2608
24.7418
8.37816
-5.78434
2.82855
12.123
5.63417
-3.70242
-6.20523
-4.00226
-6.98528
-6.69652
-20.5586
-33.8543
-23.6436
-16.1968
-1.13283
17.25
7.16828
-15.5633
-36.159
-30.8565
-24.6701
-27.8107
-27.6696
14.1448
69.6151
91.0037
85.1943
91.1275
60.439
16.498
-29.6775
-38.4153
-39.4526
-35.9121
-35.8835
-39.6127
-37.9961
-28.5668
-29.8172
-22.3433
-8.51273
7.14433
22.1865
8.78898
-9.67853
-28.6062
-44.7269
-42.8324
-31.8797
-11.1262
14.2519
19.9143
35.7358
40.0187
21.447
27.1111
51.6706
61.5857
50.8476
29.8766
29.2485
33.7362
10.7876
-29.1614
-48.3813
-16.3727
6.96568
-1.55897
-19.3915
-30.775
-26.3404
-18.0117
-19.7402
7.17458
34.2365
46.3114
33.3378
-8.07568
-12.7767
-21.2804
-49.6288
-61.2939
-23.9178
0.680357
3.79104
-7.61768
-18.0959
-32.0085
-33.9608
-21.7699
-13.7269
10.8416
15.4955
5.76068
5.88965
11.8158
15.5168
22.3649
22.6161
52.6156
77.2818
59.4882
20.5679
-0.798226
-17.3457
-27.9304
-29.6248
-19.3847
8.88151
13.7934
10.0387
-5.90238
0.429528
6.44408
-4.56101
-35.189
-38.3397
-7.20727
-0.0606854
-15.0529
-17.5969
-20.5136
-21.6697
-13.2059
-6.06096
16.9939
37.668
22.5396
2.33235
-3.65241
0.259627
-0.078206
-0.754616
3.30956
21.6867
47.4405
35.2722
11.3641
14.4678
0.0880212
-23.4553
-13.9438
-9.90283
0.874694
6.41716
-22.9889
-47.54
-47.354
-30.3241
-2.07488
13.9508
27.2699
29.5832
8.68806
-13.3448
-32.1757
-44.1344
-25.8791
-3.08351
2.6193
22.7478
37.2152
41.0343
29.061
7.92766
-13.943
-12.7674
15.2105
17.5211
17.955
16.9501
9.99053
-2.24046
-18.0403
-15.5172
-26.1503
-25.8986
-11.6764
-2.00432
0.795187
-1.14413
-6.08331
-2.02374
2.91686
8.95007
34.044
38.9573
22.4508
2.31188
-14.9437
-6.25364
2.85291
-3.9032
2.05285
-3.54294
-0.978323
7.64175
7.40227
-2.90611
-16.8385
-22.4119
-4.78223
-2.18773
-15.483
-20.4498
-16.947
-10.3314
-10.1226
-9.18914
-10.1726
-11.4296
-13.4614
6.31954
20.6079
29.4037
20.7325
14.716
-10.4648
-24.6662
0.580812
14.6136
-3.45755
-12.3156
2.79605
28.0248
26.3654
27.111
23.4753
7.15353
2.1036
-0.0685775
-10.0137
-17.9259
-17.3346
-12.6278
-4.57052
1.15878
11.4887
19.2271
18.0459
1.03402
-12.4238
-8.72225
-6.84643
0.252132
-4.33699
-4.16359
-0.00252645
-3.2633
-10.4342
-13.9705
-2.51793
-1.38078
-16.1473
-21.6572
3.20108
18.1332
15.5866
-3.44678
-10.9959
-7.87165
4.68761
14.5489
7.19445
-16.9146
-15.4089
1.56712
4.11303
15.6486
19.2713
9.08872
-1.55016
-4.46185
-3.64027
-2.8019
4.54813
-8.7457
6.75184
11.0058
13.941
18.1362
-4.18951
-28.0517
-27.5418
-13.0609
6.65641
-3.25205
-6.09716
11.514
30.9398
41.9311
22.5871
2.00795
7.96068
6.59984
-18.4226
-21.6108
-28.6981
-25.4889
-26.0436
-34.5654
-13.2763
0.539543
5.27705
10.198
5.09481
-1.46447
0.449735
10.3663
14.3246
14.7941
-5.95248
-5.16422
5.89585
3.48426
-3.66795
11.0091
23.7112
18.6034
10.7842
21.9525
24.4456
10.9718
6.34681
-3.63202
-18.2089
-13.6194
-5.48233
-19.9845
-35.4592
-43.805
-22.8562
-2.29915
-0.396784
1.24089
9.14882
10.0775
1.35055
3.89909
0.728653
-10.1088
-5.66835
10.3706
25.7136
38.6116
37.3235
12.4753
-8.66682
-7.20312
-1.37309
3.70027
1.34771
-18.908
-16.2255
-13.0281
-20.213
-20.6428
-20.4565
-27.0311
-3.98179
3.94475
-4.39683
10.4999
29.2726
20.6716
-7.38156
-2.45942
-0.334266
-3.44289
-8.96708
13.7288
30.0211
22.0186
13.6752
12.0392
10.7725
2.37108
-14.3793
-8.61205
-14.2883
-7.54332
-5.15095
-13.1201
-30.6403
-39.2723
-30.4774
-5.44108
29.7427
31.731
20.2579
1.23678
6.97389
41.0301
45.7502
28.6142
24.664
38.4484
20.3289
-3.46781
-16.5687
-32.3076
-53.5404
-38.3781
-16.8318
-10.2608
-5.8668
-2.36557
-8.66227
-3.89727
-7.55992
-35.316
-42.7846
-35.0792
-34.5547
-17.2667
-5.99536
-0.0996776
23.1766
31.1756
22.6337
30.4546
38.7055
20.3476
3.26745
-3.71134
-5.09142
-3.3961
10.0949
31.3483
38.2322
47.0383
34.1204
12.9396
4.55976
-7.1256
-21.1121
-39.7278
-55.8997
-33.0942
1.41252
8.04952
-5.1706
-17.6719
-16.5094
1.16978
15.6769
22.1432
17.7756
19.3768
20.5926
10.6668
9.327
-6.73777
-18.5267
-24.9835
-6.09814
-14.7648
-15.8268
-19.7988
-30.1867
-30.0482
-3.04527
18.9841
11.7166
22.8858
49.5392
33.8201
13.4458
-7.2426
-18.6425
-5.06239
-12.4169
-19.286
-14.6395
-11.4769
-15.926
-11.1381
-10.9915
-12.1833
-6.69941
15.2279
22.9742
20.644
26.3034
23.6684
15.4874
-7.42515
-36.1911
-38.9863
-2.76115
3.34234
8.59823
21.8947
32.2005
35.5248
23.0794
17.0245
23.5799
21.5367
7.9306
-17.5607
-24.8148
-25.0599
-40.8867
-51.9246
-43.1671
-35.2987
-13.5131
-9.79555
-12.4869
-14.2016
-4.34851
6.99675
25.1803
35.2201
48.7756
55.2985
45.6813
34.5162
16.1771
1.37717
-9.39222
-6.99848
-5.79929
-12.8366
-23.2373
-19.5788
-23.8122
-20.6273
-23.1623
-14.4709
-0.364329
-3.11467
-7.07747
-0.0930949
-7.45362
-31.147
-38.6127
-14.0198
19.1266
35.3912
41.6147
22.5196
20.2707
33.311
32.5821
25.7101
9.22368
-10.295
-1.18964
20.6323
-3.73643
-26.3382
-46.1735
-38.0928
-1.85921
15.7342
25.3721
-1.31736
-26.8479
-22.8592
-18.0598
-18.5827
-20.8115
3.91039
26.2409
34.7686
25.9515
10.8279
-9.26804
-25.6253
-13.7732
-0.0980255
10.6668
-9.01132
-37.829
-35.4791
-19.5362
1.40403
9.71622
22.1434
38.0366
36.1983
25.6685
-3.23262
-21.2822
-16.0908
6.8395
27.03
34.1108
21.1203
12.5301
5.64209
-3.84725
-5.50797
-10.8308
-9.23525
-6.36538
2.07929
20.1688
15.5743
-17.885
-23.4684
-16.5252
-21.9858
-28.6745
-15.9492
-4.03042
-2.33762
-5.89391
2.03488
12.2127
11.7342
-8.13095
-9.37135
8.48505
13.3875
1.91336
-20.5557
-25.8859
-23.3061
-23.5463
-18.0485
24.5979
62.2111
61.8043
38.0729
27.7383
12.8431
-12.4578
-31.6067
-8.51239
-3.60753
1.1134
-4.42019
-22.1339
-22.1934
-20.1164
-13.3179
-4.50136
-5.45125
4.36219
23.9701
8.6933
-19.1031
-27.1852
-11.5878
11.5728
16.2128
15.4754
10.2898
-6.56602
-3.93588
5.02524
2.10954
18.4012
30.8024
25.7001
15.5672
0.936354
-1.12119
0.391095
-8.10434
-25.1471
-33.5702
-3.64313
9.13453
3.88795
-0.829226
-4.08545
6.09643
18.7992
10.165
15.501
14.1248
2.48714
-17.7691
-32.5941
-35.293
-26.2179
-23.5407
-25.0852
-10.3388
-2.69104
5.5296
5.45727
7.21971
14.1617
26.4859
21.0275
3.11062
-7.28583
4.3767
1.40314
-7.04234
-16.0713
-16.5995
-8.81678
12.278
4.93603
4.42514
13.3917
23.1249
46.4513
37.7977
-3.35249
-12.942
-17.9775
-11.3843
3.41754
6.37522
-1.2633
-4.8785
-11.2822
-12.536
-6.1144
11.5756
36.3495
15.7989
-4.41613
-1.92199
8.96785
-4.74711
-26.6427
-25.4961
-24.4107
-38.7549
-41.7386
-19.4648
11.0716
24.7321
18.7916
13.1177
13.6134
11.5646
-1.92096
-8.26593
-2.03036
8.13593
11.2448
10.1908
-4.25463
-8.70925
-4.52191
-18.463
-6.70044
8.44922
0.36916
1.83837
-5.10611
-2.45513
0.752521
4.15096
3.37654
11.2968
13.8253
22.2975
17.6909
23.2834
20.409
17.5869
12.3345
-1.71047
-20.7711
-29.6149
-18.6667
-7.3655
-3.04758
-21.6066
-17.3418
-14.3408
-10.622
-4.9338
0.943051
3.31765
8.09511
10.0365
1.73461
5.9
11.5273
-3.53968
-5.28931
-6.99545
-1.16106
7.7044
-4.88112
-22.7419
-24.8282
-17.6809
-12.8124
-14.5054
3.3881
36.4883
43.099
55.0014
48.0116
24.3913
10.5341
-17.3073
-19.1583
-18.9938
-1.88869
2.53137
-15.7092
-33.9151
-32.7377
-28.2607
-23.2579
-21.2642
-10.5709
20.8817
39.5624
34.4004
37.0949
35.5662
27.7415
12.6843
-18.6347
-35.0355
-17.3794
-10.7053
-23.1273
-21.1875
-10.455
-2.61721
-11.0396
-14.1374
2.96898
3.07275
-6.50776
-17.7555
-17.783
-15.8464
-5.99636
15.9681
31.4945
30.1351
39.4548
26.4399
15.4959
19.5484
13.5654
9.30001
12.0444
5.262
4.70777
-2.37361
-16.6595
-4.57017
13.6781
20.002
3.0587
-20.247
-31.5365
-46.1584
-51.1296
-38.3507
-27.2967
-11.3078
2.19647
-3.09184
-0.886037
3.7916
7.40398
12.5292
15.0299
7.39664
17.1527
14.9198
9.65506
-4.68847
-16.7551
-8.4182
13.0803
26.4029
34.8796
40.1307
33.5817
16.0161
6.7317
9.95387
-15.578
-23.4923
-28.0269
-22.5053
3.37236
4.37429
-9.68925
-10.8155
4.95628
6.42313
-4.26204
-19.0949
-11.958
-23.2099
-33.5673
-35.0427
-27.7445
-9.89327
-4.76857
-6.69279
17.9568
26.0277
26.4888
14.354
6.7759
19.0179
19.0761
0.280771
-0.48064
20.6226
31.9331
28.3935
7.59156
-2.26601
-8.3157
-18.763
-24.8273
-1.29945
11.8671
0.0476357
-8.09478
0.642667
2.8998
-10.7696
-21.8646
-0.999709
8.81113
13.0077
-4.8699
-22.4094
-10.6915
2.71182
-10.5576
-0.66357
-0.439388
-10.7284
-7.67324
-23.5822
-29.659
-6.4769
17.6935
33.5624
57.3588
75.4971
61.1531
27.9833
2.83445
-8.9801
-16.9167
-29.0796
-38.2451
-40.5175
-32.069
-38.0051
-34.0719
-21.079
-18.9944
-6.1503
5.80471
7.44652
7.0138
3.59721
9.04659
6.97809
-7.31039
-18.1019
2.89071
15.1962
7.82532
9.03849
15.0582
23.0081
28.3268
29.7175
15.9306
9.91371
28.9341
18.2664
11.1616
18.9658
13.1223
-9.78848
-47.5092
-59.7391
-25.2226
-12.1851
-5.20876
5.48826
4.06398
-5.37608
-14.6153
-8.32416
12.8779
22.9778
26.4859
21.8841
12.7792
10.8955
-19.6582
-34.6091
-27.371
-16.226
-6.32686
-4.361
-16.7342
-7.52576
-4.85083
-14.7864
-18.4562
4.50689
1.32829
-9.21382
-19.7705
-12.2966
-0.453059
17.7207
35.6322
41.4059
65.3696
67.5791
22.7692
4.75159
-0.102465
-17.1704
-22.4463
-25.1251
-18.4035
4.86907
19.6548
9.69727
9.87951
17.4734
8.90452
-12.4815
-36.9404
-52.6813
-53.0701
-46.8698
-47.6938
-38.8242
-18.7664
-2.88104
24.8625
56.2008
72.0714
60.6018
29.5529
-6.27834
-26.6622
-24.651
-13.3648
-21.7885
-12.4
0.231838
28.949
50.8441
37.8446
26.5963
21.0538
-0.96271
-16.282
-18.7529
-23.8354
-28.5464
-25.1584
-12.3179
-4.50488
3.58995
3.17908
-1.25289
11.5208
18.5274
8.85484
0.848373
-8.82633
-14.0424
-17.4828
-17.7445
2.23538
23.8116
24.4964
11.0272
-6.21545
-8.52014
-16.995
-18.2964
-7.24022
5.70118
8.43673
3.33225
-3.42013
8.7796
9.09375
16.9062
20.0933
24.7109
19.9599
-4.80804
-25.0222
-30.1551
-31.2343
-16.2497
2.89767
3.18272
-2.59937
2.66148
-4.65828
-17.3925
-13.9963
-15.4395
-15.7685
1.16146
21.2054
10.9196
-1.81374
10.7989
32.0875
37.1618
11.2384
-19.0856
-9.467
-10.5117
-20.9447
-15.563
5.86912
14.5745
32.9249
54.6356
53.0734
41.3402
14.1819
-34.7953
-57.4692
-49.3789
-34.0251
-39.8515
-47.6566
-9.35672
44.2658
50.5019
29.2905
13.75
10.9913
6.18167
0.217378
-17.6085
-37.1997
-40.9394
-32.7407
-33.1447
-23.4311
-0.000689849
15.6427
12.8144
16.599
13.8631
7.71665
2.12394
-14.9531
-4.14551
16.4702
23.4588
15.0743
0.165379
25.1335
46.3161
30.6138
11.4781
5.00879
4.84374
7.97357
-4.98067
-4.18198
5.68784
2.08523
1.88979
3.87973
-18.2107
-41.8023
-45.8482
-33.8408
-18.991
-12.0098
-4.06973
-17.1544
-19.569
-15.3381
-5.13734
10.9449
42.1349
37.8618
18.9489
14.1972
5.18982
-15.0986
-23.533
-17.6248
1.70249
15.6936
21.8752
20.6679
25.8727
33.1555
28.8125
-17.5528
-26.8495
-20.5009
-13.8024
-3.94864
-7.29804
3.66216
15.242
-30.765
-40.9613
-5.12003
17.5334
10.2554
-11.6651
-14.0928
-11.4172
-7.02726
-9.02785
-20.7521
-6.97722
14.0388
13.1916
9.2151
-2.32719
-9.94273
-6.16362
-0.638546
10.6638
41.3873
52.6047
30.9471
11.3693
2.4661
10.9771
13.2792
2.98905
-6.13033
-2.47119
-1.17913
-12.1968
-16.7896
-13.4575
7.24884
20.9719
36.2962
21.9736
-0.0182889
-10.3122
-22.7852
-30.9243
-33.0362
-39.7637
-50.4764
-26.0375
-4.81552
10.537
0.553503
-21.5535
-23.1821
-15.7244
4.85051
14.1202
14.4187
19.2845
2.30785
-5.24446
-12.4665
-9.04833
5.46559
7.71187
10.6398
39.1158
53.9691
32.2905
5.36435
-2.9954
3.99754
4.40192
17.4758
33.9028
30.7972
12.9362
-11.352
-19.602
-16.5722
-16.7713
-22.2987
-7.2325
-1.43439
0.238744
-4.25263
-21.5478
-29.8094
-30.4949
-20.1365
-1.27658
3.30774
-1.90744
-6.7477
-12.5792
-2.24328
6.01801
5.0222
-17.5744
-20.2847
-14.2533
-0.148157
7.9095
9.81425
13.2122
27.9602
32.0246
25.2378
34.3252
42.5208
42.7071
45.3113
33.4069
12.2204
-10.7606
-33.5184
-42.2905
-37.6889
-16.0931
-26.1058
-26.1748
-16.1818
-18.7864
-22.1289
-22.306
-12.8248
-9.62467
-8.24656
-21.1113
-26.0907
-24.3999
-13.1872
-4.29062
18.9709
48.6459
60.0068
54.7681
35.9515
17.1646
15.7582
19.3294
26.6054
9.5024
-8.20151
-14.5778
-21.1165
-28.866
-26.9472
-11.9968
0.149879
2.29779
0.882278
4.50353
-4.31099
-17.5629
-16.4761
-19.6509
-17.9463
-9.66868
-5.58909
-0.398704
0.352115
7.93297
18.7409
23.5494
22.258
19.264
24.9568
10.5546
-5.81735
-11.8373
-18.6739
-21.4069
-12.9079
-4.70801
-6.97243
-5.38145
-0.447644
-4.18521
-4.42509
-14.4969
-21.3446
-7.43909
23.5931
36.986
61.9937
63.2646
51.3621
41.5577
8.03068
-26.2952
-34.4054
-32.5413
-36.2261
-42.3357
-42.0352
-32.2759
-23.1088
-22.0585
-14.0282
-2.51921
1.6711
3.21243
-1.97252
-3.88656
-14.8284
-14.5713
-8.30355
3.36128
25.2917
33.7808
29.3203
19.6073
6.08601
-0.961906
-8.102
8.91897
16.4304
34.9815
57.7979
62.7474
59.8144
30.0194
18.1296
4.74271
-41.6306
-52.1654
-42.7793
-40.889
-38.1505
-39.6689
-40.3761
-15.7055
-9.0316
-8.14764
8.49458
3.51568
-4.12465
-14.626
-25.3976
-20.7245
-15.6271
3.50277
0.622777
2.12165
14.67
13.3436
2.02116
16.647
25.5233
33.1243
33.4552
23.7807
20.1116
18.8679
10.1655
-8.77635
-9.63192
-3.24293
-13.6551
-26.3432
-26.4826
-9.88201
20.9785
40.4387
55.6252
42.8414
37.1184
10.7578
-9.9256
-27.1937
-40.1731
-42.7202
-37.0764
-37.5158
-22.1223
-2.71496
-1.4372
-7.40595
-10.415
-4.64373
-3.1355
-12.678
-26.3941
-21.3642
-25.1588
-17.173
-11.4134
-6.48927
1.81161
7.85728
33.2864
38.0184
35.7957
32.9421
23.1037
18.0606
15.5865
3.43815
-7.05987
-4.30881
-10.0072
-7.82217
-14.3204
-10.5444
13.0001
30.9928
63.4857
66.3096
25.7557
3.47848
-10.2459
-19.0613
-18.2859
-0.517203
6.94342
-11.0397
-21.1659
-9.83766
-2.90722
-8.38353
-10.3644
-18.8642
-31.0816
-39.0893
-35.3433
-30.2628
-52.1
-48.3895
-16.0168
5.04753
5.88637
7.95507
10.7546
15.5133
8.19501
20.2599
21.5418
13.8391
12.8454
0.841709
-2.98208
7.94945
12.5076
5.96639
7.96461
17.1413
13.2858
16.4322
33.724
48.4599
63.4068
46.781
22.7749
1.60481
-15.6609
-24.34
-9.54589
7.6488
-1.76659
-21.0705
-14.6807
-21.7843
-22.6671
-24.9811
-38.5921
-51.268
-45.8193
-51.9491
-40.4716
-15.9866
-21.7252
-10.2306
2.40533
2.03867
8.64528
9.73311
7.11884
9.61101
16.1992
25.8917
24.6872
21.9056
24.6771
21.041
34.4629
40.1868
31.1276
16.6146
-3.22014
-18.0034
-30.0009
-22.0212
-5.97185
5.50446
10.7159
35.8108
62.4397
48.6669
20.6254
-2.36168
-5.94457
-1.36167
9.05694
-13.4188
-45.7884
-53.0666
-34.6883
-19.776
-22.7053
-36.3699
-44.6183
-23.8959
-20.8895
-26.3935
-24.6999
-25.3858
-24.0421
-33.3548
-14.4843
34.4665
52.884
50.3289
23.0713
30.7796
48.0444
48.2031
22.7242
12.6205
14.0955
25.4938
33.551
10.7974
3.08598
-4.02169
-10.3297
-18.9695
-39.9585
-28.4059
-14.5045
-19.4189
-23.3533
-15.5947
-3.67734
-6.02624
-20.9199
-21.8051
-4.93042
15.4405
17.184
12.8451
10.3731
13.3227
13.8929
2.95017
-3.55468
4.76676
21.5784
17.4989
11.0362
1.65044
-8.31233
-13.9077
-15.3342
-12.9693
-1.60511
-6.17681
-7.96046
-10.9682
-5.52366
1.99922
-0.993486
-2.60908
17.2344
35.2881
47.448
37.3607
8.66518
-13.6003
-17.8927
-12.3165
-21.6981
-23.1782
-17.5202
-15.5111
-19.2097
-15.7113
-11.5866
-2.29866
0.9034
-0.946274
-5.18916
-9.86493
-16.8598
-10.0805
-21.3461
-29.7887
-8.55442
28.812
43.4022
31.8408
43.3879
32.5515
12.1498
11.0578
3.20939
8.45682
43.2119
40.3396
15.4695
-0.645683
2.23948
-1.29691
-20.4004
-32.2677
-23.7016
-17.4611
-28.5878
-54.4606
-52.9955
-41.9545
-27.3018
8.69634
44.3798
47.911
31.9078
13.4632
-7.99072
-14.517
-3.22463
-12.5729
-15.3648
-0.408478
16.4704
15.498
10.7555
7.80778
1.2884
0.141361
-5.51475
-6.42058
-8.1261
-16.7034
-16.0967
2.17115
26.1565
22.0481
4.2302
-4.47297
-8.95885
3.60258
12.0089
3.96947
-3.92858
10.018
22.0336
22.0164
17.0479
22.7901
12.2096
1.87537
-1.20145
-4.21628
-22.5456
-43.2642
-54.9797
-46.4761
-25.4817
-16.8493
-11.9132
6.7242
26.778
30.0174
23.2845
19.1512
16.8664
9.29289
-8.74615
-22.7492
-18.3004
-7.399
-13.2096
-12.5013
8.14626
24.4107
34.1085
24.6844
-10.1266
-11.4071
0.0152363
15.9042
35.2521
34.9638
9.86918
-10.7005
-24.4762
-29.4426
-22.3153
-24.5655
-13.1405
13.2983
21.8342
3.85363
-2.93931
-5.10787
-15.4542
-14.9639
-4.71837
-4.08526
-2.50142
-8.50774
-19.9094
-16.0327
-2.87336
1.83266
-0.164407
2.53591
11.4911
21.5523
20.9713
9.94095
19.5236
24.9377
10.7099
6.24185
15.0116
5.77596
7.90458
23.8824
11.9122
-13.9859
-27.8805
-25.3882
-21.7734
-23.2047
-9.78053
7.04029
16.0135
22.3116
16.4292
-11.2292
-36.8844
-38.0837
-13.6431
-10.28
-16.9739
-3.65454
3.4458
2.70711
12.3215
17.5493
6.35963
-5.28037
8.06831
6.97429
3.64525
-6.67986
-15.2161
-3.91373
4.44195
11.1217
25.1781
28.3805
17.4005
23.6356
26.0296
6.69459
-16.1912
-16.243
0.627864
5.61323
0.646306
0.738918
-4.8385
-4.05652
-17.8737
-17.5827
-12.7048
-27.0346
-35.0791
-33.237
-30.3391
-16.8299
-5.06711
3.27593
15.3974
62.6701
75.2131
50.1864
5.39006
-11.4536
-6.93527
-8.04841
-20.9679
-18.7505
-1.56515
0.831831
2.19055
4.37465
0.392942
1.51681
-6.29926
-20.3478
-26.8837
-20.4306
-16.1565
-24.857
-28.3288
-29.4255
-11.402
6.16804
17.4889
37.7696
69.0396
82.2899
81.2303
53.6947
13.031
1.0869
-0.0803434
-7.17604
-12.1219
-21.8737
-32.5102
-46.9754
-54.6054
-51.0915
-33.4546
-17.8613
-1.99833
6.56077
13.7768
6.50608
-5.88981
-7.77516
-9.78708
4.68623
13.7181
6.24509
7.82967
12.8658
6.74867
4.98805
-1.12331
-0.737326
21.1099
25.506
17.797
12.1515
9.74636
1.37929
-12.1051
-15.0205
-20.4116
-20.4317
-27.3202
-25.0543
-1.92056
22.2612
19.3419
9.85218
5.49817
8.06455
17.4572
15.9596
2.26399
-4.0368
-3.3747
-11.1706
-19.1335
-16.7643
-5.08301
10.4702
5.50177
-2.24783
-5.62516
-4.19613
-1.24977
-2.35765
-11.7755
-1.537
4.8486
4.16338
-7.72856
-12.3702
-12.578
-3.15542
17.8565
56.5589
51.9073
43.5398
24.6635
-1.91734
-11.6094
-24.9361
-25.8382
-17.4497
-9.03255
-12.5266
-13.0578
-10.6927
-14.6469
-18.3739
-18.3048
-22.9002
-22.7571
-8.63939
-8.84345
-15.9906
-5.89238
2.93014
10.3996
3.43445
-6.11718
15.9863
25.8858
21.9952
18.0257
26.3934
37.3616
30.3032
14.6998
16.2841
15.1667
13.7785
6.41127
-11.9348
-17.6315
-16.9158
-15.1611
-21.7274
-26.7496
-11.4651
8.28432
14.9811
10.7873
3.57248
-6.07441
-6.92116
-18.9654
-24.5113
-12.1346
-9.72817
-7.49626
-7.89353
-7.48184
4.95343
9.90366
-0.289043
-2.75202
2.5841
6.25146
2.83816
1.45697
-8.26233
-4.0531
1.88167
1.26233
4.50185
7.65211
2.35076
1.56009
5.46828
4.89297
4.61578
17.5907
8.24174
3.33032
5.73803
26.684
30.6629
21.9926
20.7227
10.3501
-14.5634
-16.5316
-18.545
-19.5618
-27.908
-33.891
-24.6144
-4.76095
-0.302995
9.1319
13.0477
4.7705
-0.538184
-9.25046
-8.99901
-17.4106
-21.1123
-15.538
-13.7734
-7.1559
4.01532
-12.6564
-7.47098
20.2255
25.9644
28.805
25.2618
15.0654
10.7695
8.14283
5.90947
-9.84598
-19.6554
-2.69038
-11.3782
-24.2435
-23.344
-11.4743
-0.252494
12.3331
33.1407
68.4754
69.0707
53.2474
47.3879
40.6904
11.353
-34.7118
-50.5149
-43.2687
-50.2792
-46.4344
-38.5567
-35.5616
-26.7559
-16.8649
-6.72113
-0.2316
1.00282
16.6401
21.1859
-12.2776
-27.9929
-37.9689
-39.8531
-12.9701
7.90626
22.6907
31.588
25.2321
29.4003
33.6073
21.8431
8.20777
26.7846
31.9596
25.9802
15.1612
0.00814814
-17.9338
-32.4128
-38.5392
-40.8613
-24.6552
-3.43991
-5.46205
4.19324
38.9714
40.6542
23.9578
26.0726
30.5432
34.3679
20.0329
7.32094
7.75653
7.76381
-9.83503
-36.4473
-47.601
-34.4027
-17.0441
-2.83078
-5.51095
-13.555
-25.4022
-31.5029
-20.9026
-27.4199
-23.4525
0.532821
3.73132
-7.9
-11.4022
-20.5282
-22.7728
-20.0048
0.0783606
19.1173
30.5115
26.1697
19.6789
13.7344
16.663
24.436
53.5687
57.1351
28.307
14.5781
9.16667
-4.35979
-14.2877
-3.17424
20.398
20.3491
5.97084
-10.638
-21.9634
-21.6087
-18.2897
-18.8293
-8.74374
1.27522
-2.49308
-21.7463
-36.8824
-31.7094
-35.1088
-13.4926
-4.99911
19.6076
38.5801
48.2353
23.7641
-0.0436267
-8.8603
-8.71496
-9.89897
15.1041
12.5704
-5.80685
-7.42661
-1.82583
-5.64666
-11.3841
-23.6584
-5.85469
4.78924
7.51626
5.56466
-16.5489
-23.604
-29.758
-26.4739
4.37735
13.3052
16.0076
24.9328
22.5941
17.6551
16.8926
15.572
7.31415
-6.73034
8.9541
18.8734
7.83582
8.7542
5.23077
1.34173
-6.67536
-18.5488
-15.7988
-0.122536
-4.60073
-1.79546
2.41138
1.53227
-6.79023
-12.1597
-2.8989
1.6537
-2.13707
1.82088
-5.65841
-9.6312
-15.8377
-17.2908
-7.98748
-1.00143
1.58625
9.25674
13.2465
7.10159
-0.545759
-2.161
10.1651
10.5186
6.06376
5.98624
7.14365
3.27211
-2.10677
-12.2208
-7.61696
7.36688
6.21474
1.68052
-3.2075
-3.92321
-9.13397
-9.59033
-15.746
-12.9245
-0.100511
12.8811
4.66151
12.2048
23.1465
16.7008
-7.58305
-12.7749
-14.6217
16.9989
18.1585
-6.90473
-6.17698
-3.79192
-3.69838
8.75577
11.429
21.9962
8.37992
7.16441
4.3851
-14.8478
-19.2602
-15.857
-22.8701
-18.2519
-7.67265
-9.23437
-2.37506
-8.2624
-12.3822
-15.7502
-27.2111
-14.4967
-7.52409
-1.41269
12.8082
9.4731
22.4075
28.9199
23.2214
27.56
33.2098
18.711
4.61476
4.68204
3.50512
5.59828
8.02527
-14.0603
-26.5023
-11.9607
5.01345
-0.373572
-1.54969
0.964861
10.6469
13.7686
4.83906
3.88111
-0.757449
0.570329
-5.68755
-9.25221
-12.3951
-12.5441
-13.0645
-9.634
-8.62254
-1.0646
1.39872
-3.7817
-5.53413
-9.7433
-2.99656
7.3842
-0.109614
-8.40942
-9.2942
-9.98828
-11.2203
-15.8704
-19.0624
0.345577
18.9376
12.0481
13.8827
12.3661
14.3649
26.6496
21.1391
4.78084
3.41238
21.0475
19.8318
11.6625
-8.09735
-20.4242
-13.8361
-19.4697
-27.029
-16.4075
7.41443
22.9554
15.4911
9.36937
10.147
0.672936
-7.71464
-15.6265
-7.1104
12.6569
7.52941
-8.21835
-17.7524
-27.3105
-21.3695
-17.5399
-8.66243
3.11725
1.40714
-0.170109
-0.699623
-7.79165
-8.89797
3.9692
21.265
36.2057
41.0226
18.0712
9.76003
9.99287
5.18325
-6.83148
-7.35349
-0.162915
-3.01095
4.76803
6.81606
3.19402
3.30319
-8.86936
-31.6781
-30.5162
-12.4205
1.21032
-2.87514
-7.0425
-5.22141
5.42126
5.72598
-4.16954
0.217776
8.13314
0.703626
-9.12126
-10.0377
-13.0238
-17.0635
-23.817
-8.85394
18.1181
34.149
31.8556
40.124
53.7586
44.3395
8.33114
-13.8575
-15.609
-19.9079
-22.2662
-21.4211
-8.57165
3.3298
-7.42872
-18.685
-12.2914
-3.4429
3.23326
5.55676
-27.8556
-26.406
-24.4552
-26.9564
-7.51237
6.66328
3.38938
7.51461
11.413
5.09199
5.44393
20.8364
17.4019
22.7657
33.487
32.9585
23.8783
22.5118
11.4488
-9.59829
-29.4097
-42.8709
-25.6369
9.49785
7.72049
-0.641089
-7.15205
-16.0508
-20.9516
-17.8066
-9.34151
-10.0075
5.43764
5.32542
21.7817
49.701
48.8046
34.0694
19.7018
2.99464
3.63398
-1.47452
-15.8775
-31.4327
-40.0593
-47.3343
-49.6264
-26.8362
-10.5844
-0.409295
4.30613
6.73048
10.7294
12.2124
-5.27075
-25.2114
-19.9714
-20.1044
6.62672
29.9894
26.6098
22.6227
12.637
5.75612
-1.89742
12.4988
38.9508
22.4837
14.2033
8.49947
5.59069
1.38249
-15.7122
-18.1758
-4.91129
-3.21656
2.0972
20.8658
12.1121
-15.3608
-21.641
-4.29359
11.3701
10.109
8.96652
3.78025
-6.29432
-9.18799
-16.0622
-7.10593
-7.73728
-8.9637
-7.19394
-10.0284
-17.3088
-20.4192
-29.3531
-23.3773
-16.5943
-5.42908
0.71529
-3.33038
-4.81905
5.4054
16.2933
18.7223
47.9242
57.669
43.6022
27.2688
21.632
13.4551
16.1699
-2.80515
-26.0983
-18.8297
-19.3352
-30.595
-33.4043
-22.0021
-10.6679
-4.90521
-11.3276
-21.2645
-11.4936
-0.515598
-7.33365
-4.24111
2.07786
2.02421
5.93304
12.2402
7.45791
20.8792
27.4841
23.2214
34.6612
28.6081
14.295
2.57507
-0.220385
14.4696
31.5211
19.346
-6.05795
-17.4978
-40.0901
-53.7443
-51.2279
-19.7696
1.36413
6.92355
0.0698659
-7.27282
-13.6
-26.0744
-46.5084
-36.2466
-9.914
10.927
22.7122
23.5426
23.4394
31.5689
32.2126
7.20105
-7.22844
3.51531
12.3721
-1.0758
-7.28218
-0.857277
6.24632
9.23277
13.3013
25.8823
15.3646
0.59556
1.03296
0.914759
0.38933
-14.2863
-34.918
-13.0627
-7.45922
-0.731948
8.77086
6.38982
2.71947
3.28933
2.52845
6.60768
11.1307
-6.48174
-21.3612
-24.3408
-9.22175
-8.22603
-6.82187
-5.9743
4.31435
25.1197
16.3308
3.77635
4.98557
13.6038
19.9568
11.9745
-10.0673
-7.38048
-7.95452
-19.5978
-23.0389
-8.3778
1.15661
0.143987
6.05343
-0.164991
-9.15708
4.32278
3.32343
9.05
22.0847
19.3883
2.13651
-25.3793
-39.0196
-14.4929
13.6195
0.627954
-10.3286
-1.9928
8.90632
5.26815
10.9285
16.6343
14.5359
9.7032
0.00533793
-4.16821
-1.11392
-17.1061
-20.9635
-9.79294
8.31835
16.7912
14.9171
0.44104
-6.00892
-7.4762
-5.47196
-2.05137
0.486022
6.3568
8.31473
4.21248
-1.25274
-1.56031
-5.74918
-1.60311
7.84064
-3.51708
-9.20701
-10.6854
-4.27586
7.02354
14.2857
6.04803
3.46872
5.60328
0.0797029
-1.22557
-9.43022
-18.3709
-16.473
-12.228
3.22327
34.1253
40.445
19.8688
6.16939
15.7806
25.4342
5.67425
-26.8166
-32.1123
-21.2068
-18.0253
-17.6189
-16.5086
-11.6055
-10.9161
-7.26094
-0.152093
12.9082
3.72198
-7.46225
-19.1831
-7.48328
10.1876
9.45168
-5.97936
-4.01629
5.39425
21.6077
14.2498
7.07854
10.2379
11.8415
4.05601
-2.99046
3.98077
7.56576
5.33636
-1.49223
1.28993
6.18846
9.66834
5.35287
-22.7147
-39.3512
-40.4743
-40.637
-30.7935
-14.5899
14.8175
52.7463
103.366
83.3287
33.9517
15.1584
-12.4855
-14.069
-7.15827
-26.0694
-29.831
-16.5653
-20.4696
-19.9298
-8.99225
-5.65014
-1.02265
-12.1605
-15.047
-3.16266
-7.46672
-28.7312
-51.5168
-34.2316
-5.70129
-3.18072
13.8129
22.2137
26.7195
31.4718
26.1021
18.2506
24.6342
17.8777
7.56125
12.6025
15.1956
16.6665
12.2345
-2.5136
-2.00268
-8.53188
-21.7555
-26.2149
0.11062
17.494
14.5972
3.12659
-8.49238
-11.283
-8.77885
-10.2116
-17.3791
-17.1756
-0.521513
1.54991
1.92841
-0.492533
-1.35624
-1.11744
-3.41344
-12.1151
-6.46952
5.17097
3.71672
3.41265
-0.201399
-3.32729
-3.44055
-5.57588
6.64636
1.50534
-6.70085
-5.74206
-1.11815
4.87349
8.11952
22.3444
28.9346
17.5478
14.3414
9.29715
-11.4472
-20.8672
-22.0058
-29.6321
-13.1068
9.59109
19.3893
22.2742
12.0276
5.00044
0.500534
-2.87553
-22.4235
-24.4013
-22.5192
-23.7017
-18.4673
-3.38883
12.4669
31.8588
38.2774
39.434
15.4704
9.60938
2.18665
-14.0213
-25.1791
-29.6388
-36.4671
-12.309
5.77169
8.84741
15.5629
3.76834
8.12644
21.2708
17.2241
18.9721
16.1271
-1.18571
-5.84751
-8.3134
-3.42137
-2.92744
-16.8277
-21.3682
-18.4181
-10.5258
1.05801
-4.40644
-11.0366
-5.6782
0.0425001
6.4782
-0.921448
-12.9515
-10.0314
-1.30798
-2.2803
-9.58302
-7.45332
0.936365
6.48389
11.4244
16.4239
19.4262
27.3132
29.5899
27.7491
15.6999
10.518
7.66292
0.71588
0.402472
5.28065
-7.19726
-15.7514
-23.525
-27.6903
-21.6502
-20.4626
-0.387275
13.0402
13.7379
18.0353
8.78723
0.802343
-1.79202
-9.6253
-5.71182
-9.70855
-9.68275
-7.73229
-11.9136
-14.104
-14.7077
-14.0795
-2.73844
-6.96082
-4.86052
-2.68021
-6.22566
-1.82932
5.19958
2.12811
1.54585
22.2865
30.4794
23.0602
16.9771
16.1205
10.505
8.50934
5.69888
-4.88865
11.039
0.240902
-35.0386
-39.2308
-19.6946
-9.08866
-22.9493
-17.7183
18.8529
40.4071
65.801
63.8589
31.0442
21.869
34.4533
32.5831
28.9603
-7.00635
-4.40795
11.31
-3.87142
-82.8808
-85.4375
3.60888
-34.9326
-238.162
-208.144
16.2318
157.509
149.311
65.4596
54.3606
131.894
-2.0355
-220.183
-289.481
-102.697
-1.04389
-69.9511
-110.056
-106.757
-50.5944
-6.74574
28.3706
188.776
462.957
445.199
212.685
-18.5335
-123.305
-266.985
-261.339
-96.5235
75.7833
213.113
231.098
111.074
74.6417
70.8488
38.3788
16.7831
22.8654
38.2294
36.0058
-55.2577
-80.0891
-49.9588
-70.0493
-115.608
-119.978
-24.9911
-20.0981
-162.876
-178.328
-187.439
-126.54
-65.7945
-9.8941
29.7676
24.2948
39.7724
69.7675
55.7717
-5.6401
-26.7484
-44.548
-61.6683
-51.1619
7.19034
57.2626
117.283
106.021
58.0093
56.8498
117.654
114.624
42.2849
-5.86074
10.8684
43.4793
42.5566
35.2448
18.8352
-15.9449
-22.4211
-36.5394
-51.4253
-48.4391
-24.4676
-5.05937
7.60305
-12.0868
-21.0256
-20.4966
0.288366
9.52433
-0.250351
-4.9762
-1.15899
10.5045
17.5281
8.56401
-8.17438
-27.4058
-42.8413
-53.6521
-59.4617
-64.3323
-41.5735
-11.2256
21.6361
45.0469
39.1979
44.1918
64.7542
53.0683
21.842
11.1972
9.88995
3.31543
-21.9448
-36.7073
-37.5785
-25.602
-26.0291
-34.4604
-13.9169
0.293049
4.54111
3.53977
16.2699
16.8525
-1.38822
-17.0746
-7.02853
0.0407692
-0.971055
-17.0157
-17.3566
1.98033
10.4172
31.4653
43.8893
30.7154
28.0493
19.2799
-6.20509
-13.408
-14.3995
6.06622
10.1004
11.0204
39.0867
47.1955
23.1159
10.6967
-2.32368
1.32295
-4.67872
-10.2609
-16.0451
-15.8528
-19.001
-18.3904
-12.7937
-9.09241
-21.5619
-17.7698
-8.18624
-13.274
-13.0361
-8.36417
-22.1937
-26.0635
-32.6177
-32.8937
-14.7724
-2.49129
2.78226
15.3642
36.8703
31.7195
17.1096
18.2512
15.8197
27.3767
31.7933
34.1696
39.6199
30.0698
-6.31987
-47.6931
-55.9863
-11.1339
18.164
4.05815
-24.2435
-35.5508
-14.9679
-9.42702
-5.18977
-3.66355
0.0901026
3.47703
2.31844
2.28975
25.0459
28.6919
20.7773
0.585723
11.8213
18.6542
-66.1908
-122.925
-49.4139
17.6758
36.1989
14.4805
27.6924
59.8898
58.1655
48.9976
37.471
-12.7931
-57.0558
-63.0887
-40.3431
-35.4426
-29.3474
-8.67081
4.22735
14.4385
62.9662
59.2049
14.6994
-6.89743
-3.66288
7.75962
-9.61814
-31.9356
-37.0883
-31.7879
-12.2134
14.1504
38.4106
34.9868
14.7277
15.4493
6.30713
3.36378
3.0665
14.3034
28.2874
36.4166
6.32448
-9.07209
-13.7074
-8.39599
-8.22263
-7.39816
-7.82559
-10.6856
-19.0291
-10.8009
0.641581
-1.23206
-11.8766
-12.1154
-9.41809
-14.6706
-11.7171
-0.947975
13.5321
14.7623
2.88449
-10.4741
-1.04978
0.0946777
-4.35452
-17.1101
-15.6765
-1.48516
0.743925
-5.11778
-5.32076
8.93326
4.11712
-6.56847
-7.34595
-8.72887
-10.3161
-19.9656
6.64925
23.8998
10.8353
9.38673
10.8334
16.5119
13.1175
-3.52964
4.74362
10.2916
10.337
16.4283
18.6751
9.07659
11.6854
6.62239
11.3646
10.7665
3.24049
6.99107
-7.41293
-12.6014
-13.7408
-23.4869
-25.9657
-24.0924
-18.453
2.52806
3.80273
-3.2648
-12.1522
-10.1651
-23.0054
-30.006
-10.3625
0.609245
-6.2605
1.6518
11.6088
5.12761
10.1645
20.8902
20.7279
21.3546
29.659
30.0722
10.2624
-11.2503
-18.5909
-19.9756
-15.5189
-12.2211
-1.63224
6.64037
1.38501
4.59686
9.95279
8.97938
7.04769
-6.06555
-28.1876
-26.9188
-13.1775
0.795552
2.64936
-1.21063
9.37757
10.9278
11.2086
15.4633
17.9115
23.7643
26.4213
22.4695
13.3366
4.44325
-4.63203
-10.823
-2.42841
10.2112
19.0181
6.53714
-3.95236
-8.4216
-16.7727
-27.9331
-16.4298
0.532926
-9.37672
-16.1173
-10.4372
-1.6937
-1.27395
-12.9667
-15.5775
-21.654
-18.8684
-7.74676
-12.9115
-14.5816
-12.8418
-7.15258
20.5054
21.7561
5.22068
6.45544
1.47931
3.32043
5.51585
10.2486
22.8469
12.7926
2.07946
3.84118
-0.0988401
-7.57565
-17.6749
-15.6597
1.79144
7.2132
24.6527
28.4052
14.4225
16.3227
17.9152
12.496
-15.3398
-44.0045
-33.5302
-17.7942
-12.4516
-7.71314
-3.58239
-0.0519446
-0.368557
-1.54899
15.5926
20.091
13.3047
10.7723
9.52498
9.14009
6.83039
13.9303
8.76392
-1.06952
10.2596
17.7054
15.3784
3.25034
-13.9027
-29.1764
-19.1923
4.64239
23.0543
25.0302
9.14804
-10.4145
-22.1954
-20.5875
-17.3982
-9.99643
-13.2691
-23.3578
-19.2163
-17.9486
-42.1766
-44.7399
-6.99694
16.1503
17.4528
13.0395
7.51343
-0.0287876
-3.47109
5.92358
3.70646
3.73191
15.8948
30.403
27.4026
13.5653
3.91362
2.54283
4.31759
12.1292
25.8162
34.9812
20.6568
2.81444
-4.07607
-3.26449
-8.0181
-16.1673
-33.3222
-18.4314
-4.24417
2.06097
13.2895
19.605
12.2618
2.67417
-3.79226
-16.7673
-23.3698
-9.65465
10.2356
15.7233
-25.6068
-48.7888
-31.1018
-23.7814
-31.7575
-15.6419
26.2913
42.618
43.0111
23.4727
-0.931882
-20.4874
-25.6051
-11.5805
-7.60654
-2.31274
10.1153
6.88264
7.28692
10.8813
26.1053
23.4334
8.01785
11.956
26.7853
4.43397
-18.4709
-29.5608
-26.9612
-17.6428
-23.053
-2.62401
25.6026
29.302
37.4248
39.5002
19.11
0.353376
-9.6616
-14.8367
-21.293
-19.0908
-20.9369
-13.7918
-9.99299
-6.14124
-14.689
-8.79137
-5.80608
-2.43481
7.54889
4.12568
0.141122
-5.57667
-14.4637
-5.16506
-3.85469
-0.528954
6.42322
7.17955
7.8255
15.6735
8.13754
11.1958
24.3015
18.5922
16.8801
10.437
6.035
10.5286
14.816
-1.87984
-24.998
-22.2124
-1.40439
-10.7422
-9.308
-7.27159
-4.10993
-7.72796
-12.3162
-14.7175
9.08746
16.9296
-0.367242
-0.668499
-1.06445
-7.21042
-11.0293
-16.23
-14.5352
2.38624
10.4205
5.43583
-9.55691
-10.5781
-1.30515
2.84941
-1.55413
3.35772
5.18905
7.29038
-0.383602
-6.7019
3.05633
9.03242
17.7774
27.6847
23.6454
18.5351
12.0456
3.28505
-5.68256
-21.5567
-27.8227
-5.87472
0.0415278
-2.65325
-0.289564
10.1796
14.6752
5.79225
-12.322
-5.98203
5.65262
23.2649
10.0597
-11.5233
-24.2055
-36.5194
-35.283
-41.127
-37.8879
-21.095
-2.62103
13.4632
35.8908
42.9504
49.6438
43.8679
26.5368
30.1164
16.9092
-4.38328
-24.0226
-36.2801
-27.0884
-26.0362
-23.7372
-5.05053
2.20074
2.19566
7.1524
14.2386
10.7626
-7.7672
-16.3064
-6.9017
-8.10591
-13.7578
-5.54838
0.0270868
9.24728
2.32189
2.2429
14.0887
11.8229
12.4754
14.9451
16.7227
16.1567
20.4491
15.2713
11.2987
9.05566
5.52709
-7.7176
-15.9836
-13.8129
-18.6443
-17.9312
-16.7242
-13.5211
3.95634
6.93318
-2.45217
-11.3071
-9.37483
-5.20994
-3.04642
0.937232
3.42627
12.0786
7.04729
-0.311631
-8.75959
-15.6989
-19.4315
-14.0936
-13.5251
-4.60018
-2.8401
-1.81271
-11.8805
-7.3263
1.90021
10.4387
10.614
16.6088
34.1736
19.7353
13.3313
30.5362
32.7372
26.1506
14.6917
2.98681
-8.22921
-16.7759
-15.5854
-16.8924
-13.161
-9.50873
6.14081
6.66702
5.1583
-4.22191
-18.255
-31.1177
-43.7827
-40.4645
-37.7806
-32.0606
-2.31096
-0.770888
13.0046
42.201
64.858
70.636
47.1101
19.0336
9.90713
-4.93241
-16.9447
-21.3381
-30.0478
-30.2604
-29.4694
-27.8185
-11.5829
16.7187
38.9076
33.2828
9.22267
-3.64433
-18.8412
-32.8521
-45.7284
-46.8389
-15.1296
3.15891
8.96187
28.1253
31.963
27.5998
15.4234
12.5935
24.2407
25.8261
18.7601
18.4446
19.189
13.0377
-2.38077
-11.6172
7.53379
15.6701
-1.38943
-0.763283
-15.4165
-31.93
-46.0003
-67.0179
-53.2622
-11.0692
-0.638654
5.98739
6.39529
19.7664
25.2921
7.93075
-9.73608
-13.3272
-6.36641
11.3425
2.38576
-12.3147
2.87134
9.26267
18.3308
49.6973
64.9558
51.6426
13.9568
-20.6249
-25.5698
-28.2937
-17.7787
-29.2171
-49.4461
-49.3719
-25.5757
-11.7285
-15.023
-14.6405
3.05277
18.1515
31.3137
20.951
7.71305
-4.97725
-10.6922
5.06214
24.3326
24.1722
32.1406
38.242
33.4208
26.2298
20.1028
14.0266
-11.4061
-14.6453
-8.57701
-13.8397
-18.1099
-19.7316
-22.6431
-21.189
-20.8561
-20.3195
3.32727
9.82437
10.1226
13.5294
-4.18073
-16.0366
-17.4084
-13.2026
-5.43268
-0.618022
0.317204
-4.63322
0.746735
14.3135
7.89562
-4.12055
-6.80891
-12.0145
5.22313
17.5258
13.4033
1.77975
-14.0994
-19.4303
2.36774
1.68798
-3.28453
8.84555
23.3906
25.3959
20.3593
4.25665
1.34525
19.6099
15.5383
6.48282
-7.86115
-20.7166
-39.7926
-28.8558
-11.4565
21.4806
19.2543
-3.13455
-21.184
-8.09889
7.0031
11.0151
0.775902
3.72486
-0.269005
1.16005
2.01586
-7.37572
-10.6943
-2.3251
-3.81574
19.27
26.0886
20.6055
-1.06981
-19.1125
-19.5884
-15.5385
-3.7156
8.48131
2.94806
-5.0872
-0.366605
-11.1134
-4.453
18.3111
8.58967
-0.181943
3.65472
0.916148
-1.14661
-5.89198
-1.47378
-8.36404
-20.6449
-24.1328
-9.08703
6.02398
16.9399
20.1806
19.5921
13.8913
0.137873
-0.975761
-14.0023
-25.8596
-1.69558
-1.5662
-10.884
-7.01769
5.46733
5.74891
0.32028
-1.1939
25.3265
37.6313
32.8574
19.993
6.43929
-3.54876
-12.1824
-10.3398
5.74215
-1.6326
-5.4206
-6.58224
-14.8869
-24.0707
-25.7418
-22.1061
-7.64118
-7.20879
9.22712
22.1602
16.2664
7.87297
5.62082
-1.43304
-21.8426
-38.2476
-27.771
-9.59526
-15.0639
-8.00008
16.0662
13.1409
13.6031
45.6069
52.1754
40.1583
29.2367
28.4277
17.7822
-17.7309
-49.5309
-30.8108
-23.5076
-27.3722
-23.5305
-15.4265
1.66554
-4.89861
-29.9936
-10.0658
6.05791
20.2563
9.30331
-9.57413
-5.48288
4.75223
-7.67513
-15.5187
8.11411
25.0823
21.6958
21.9718
31.0417
32.0886
29.0855
15.1478
-1.27494
0.413496
9.09256
4.5995
1.30555
-18.2012
-29.2332
-35.3745
-38.4372
-6.32454
12.9375
14.963
0.352531
-13.0025
-14.7912
-20.076
-19.8407
-16.582
1.70159
34.5556
24.9903
4.73431
3.90436
2.96802
-9.43263
-13.916
-4.56772
7.72796
6.46217
-6.24599
-11.8352
-6.51014
-6.42626
-3.23399
2.69338
-1.35237
3.76252
21.9904
16.6239
-0.153836
-0.608732
4.94477
25.5286
17.0594
5.94627
4.30845
3.30056
-9.52819
-9.78784
-18.7513
-18.9394
-10.6854
-13.5721
-12.9697
-11.596
-4.7847
5.27929
-3.544
-3.92216
17.728
15.0165
19.0027
18.0725
5.61954
-2.34477
-4.35932
-22.657
-30.0476
9.71605
27.6931
17.5682
8.81518
15.3175
12.6479
-5.88295
-8.48649
-8.44346
-9.04765
-8.36123
-23.1264
-22.5785
-14.944
-15.1745
-9.8643
-13.3211
8.76852
19.5134
21.9078
2.94392
6.87184
25.7553
28.7178
18.2068
6.57082
-1.07626
-14.579
-17.9745
-18.3768
-16.6184
-17.4735
-8.43359
20.5798
42.1272
55.356
46.2177
8.45777
-22.445
-37.7423
-38.9898
-15.8468
-11.2935
-19.3334
-29.3861
-15.4167
4.00865
-2.73525
-11.7352
-6.03378
-1.42714
2.2126
14.7944
7.97106
1.68949
-1.36374
1.23598
24.5923
43.7871
36.6086
9.56469
-20.9352
-26.3627
-20.2696
-12.4461
-3.04584
5.20917
17.0389
20.5679
14.9055
5.79
-1.85632
-10.5014
-17.5713
-32.8091
-36.7471
-9.74834
-3.7396
4.30314
17.2737
21.987
17.4848
7.82044
1.80324
14.9013
10.3913
9.85137
4.54464
-3.66022
-1.84666
-4.09779
-9.71924
-6.56222
-5.8855
-9.3164
-7.03737
-10.8399
-6.93567
7.62539
15.244
8.65707
1.93055
11.0147
8.72608
-12.5031
-24.5102
-20.4485
-5.77753
-2.86756
5.12273
6.98615
12.7678
4.37512
-3.16082
-7.98636
-14.708
-18.8657
-24.135
-25.4906
0.589338
13.9633
16.3484
39.7477
65.5711
53.3045
35.5786
14.1791
-8.49935
-24.0738
-22.3867
-18.1745
-19.7996
-34.88
-52.8037
-47.3855
-5.95642
23.4544
24.0834
32.2756
31.6802
25.8273
9.27191
-21.6214
-44.4427
-40.502
-7.22632
1.12435
4.61839
9.55189
-2.04815
2.24304
11.1435
16.7736
23.8326
33.6554
16.6675
-1.74602
-6.89961
-11.0317
-19.0521
-20.0367
-7.1419
1.9939
-2.57211
-2.07144
-5.54872
1.65707
5.72256
5.76966
3.09775
15.8975
10.3076
8.23818
5.29454
-4.63756
-11.2328
-13.4834
-10.9696
-2.91241
4.26491
7.91535
9.73122
-1.30308
-3.87443
1.8176
-1.2501
-12.4041
-8.55687
7.54614
18.4793
7.97914
-3.15013
-8.27405
-12.2884
-16.8519
-20.5392
-13.4399
2.96639
-2.39952
-3.92038
-3.53836
-6.74626
-1.439
2.72607
2.62383
9.50057
20.5485
22.1113
17.0996
17.6884
7.94845
1.66576
-0.314664
4.75803
5.98347
-2.8479
-5.57764
0.0266073
1.82066
-13.764
-17.8073
4.98555
-2.3673
-9.73045
-5.95425
-2.30178
2.68495
-8.9146
-23.3992
-3.59536
-3.78814
1.54127
3.69365
5.22118
16.8227
17.1368
-3.27054
3.83576
13.2726
10.493
10.2669
-8.74548
-16.9722
-19.8171
-14.6581
-10.0811
-2.00263
14.4584
14.1394
5.01388
22.3909
34.9022
23.4876
2.34917
-19.9089
-12.0096
4.91155
-17.3778
-20.1856
-13.7871
-12.1772
-15.3969
-13.3398
-6.1486
2.43943
9.77948
13.3116
-0.699561
-10.7964
-24.071
-25.3395
-21.5497
-17.6622
-6.39563
22.2564
36.8959
36.1439
35.5487
27.4833
14.7351
9.33823
7.44782
20.9755
20.0318
1.95237
-17.4888
-26.7275
-19.4439
-3.95262
-15.8032
-21.3353
-12.3587
-3.98934
5.10842
4.28045
-3.13842
-4.65744
-12.7197
-22.0651
6.87655
40.6636
36.8544
7.12898
-8.67089
-17.4178
-14.2659
-11.4497
-1.60487
2.51328
3.35138
0.290753
-8.43983
-5.63465
-1.80655
-8.94239
-7.33647
-4.01676
3.54958
10.1901
-6.30252
-24.8354
-26.996
-12.9571
10.3229
21.1185
20.3525
23.24
26.5858
32.2697
27.4586
14.0881
7.95635
2.84179
3.54901
-1.7907
-18.2041
-29.4281
-31.3889
-25.1942
-12.9491
-20.1888
-10.3826
-6.05812
-5.5729
5.46632
17.9301
30.4375
37.0544
29.2347
15.3055
3.74492
-25.1598
-37.4945
-29.5686
-1.07572
22.1784
27.2322
22.8774
14.7683
2.0657
-4.79312
-7.3362
-10.096
-15.2331
-14.1944
-17.1817
-31.5106
-30.192
-22.3552
-15.3539
-9.17771
5.16748
15.0853
21.3626
7.56034
-4.05998
-6.06629
-1.44539
8.17458
14.7851
24.6093
27.6229
6.93957
-2.95582
1.5188
9.55782
10.4081
-3.46002
-13.9817
-4.35875
13.2054
28.3027
27.4975
25.6909
11.6488
-4.90975
-18.8558
-22.7431
-27.7144
-25.561
-20.2486
-31.7804
-3.7538
24.3939
22.9035
16.2767
8.13767
-7.10514
-14.6482
-18.9294
0.59522
8.60981
16.5378
-1.53538
-9.66011
-13.842
-12.5768
-11.7389
-2.9716
-5.75991
-10.2826
-4.95304
7.48593
17.3114
28.7368
14.1699
9.22117
10.0911
19.5771
30.7453
5.31303
-18.4854
-30.608
-38.87
-20.0749
-8.77695
-2.29034
2.24648
1.11506
-0.446774
-1.35928
4.77491
-1.94562
0.372303
-6.11076
-7.36104
-5.77704
-3.14346
-3.18025
-7.37391
-19.6734
-3.73344
2.34428
23.5469
22.3317
33.06
35.3134
19.2631
2.49011
-4.75906
-10.8976
3.74996
36.1518
27.3995
12.7487
6.35696
-15.4696
-28.1788
-33.8419
-26.0634
-3.11942
-0.0906856
4.97317
1.21814
-1.67321
-0.550914
-0.109887
7.17054
3.76966
0.757533
-0.210514
-4.68288
-23.4351
-36.4598
-33.9416
-11.9656
8.64249
15.5728
12.0462
0.894289
-12.1606
-13.2857
-11.1479
-5.20494
-1.90674
1.12621
14.447
21.4681
25.3521
17.7516
17.5511
33.5767
26.4641
10.6841
-2.6473
-18.4202
-28.1778
-32.2916
-20.7097
-1.6886
5.59972
-0.313378
6.59075
6.85817
-0.621949
-2.98208
-0.121266
-1.30184
13.6865
15.5302
0.215333
-22.295
-25.9541
-14.16
-10.6392
-18.4399
8.5257
50.3684
65.6167
66.5429
49.1225
20.9225
-8.05019
-28.409
-26.1218
-12.8767
-26.623
-31.2206
-42.3036
-39.565
-29.9452
-29.9805
-32.093
-22.9075
12.2318
25.6666
13.8604
-1.00188
-11.1808
-29.6828
-24.4899
-6.82365
13.289
32.9342
28.0014
12.586
12.356
19.7647
15.363
10.6427
32.8858
38.7797
49.4154
48.2254
24.9102
16.6124
16.962
-7.40673
-23.9057
-39.7596
-40.9074
-27.8689
-24.01
-27.1824
-28.1241
-29.7614
-16.0163
-8.26647
-0.833585
9.21017
4.79868
1.63376
-6.20453
-13.3175
-6.30126
-3.29106
-3.06923
0.249846
-4.32343
6.62667
25.5809
25.6474
8.06222
7.54156
2.04952
3.38472
5.08358
4.43555
0.60391
8.76576
3.10692
-4.89354
9.75371
12.3496
3.3799
-1.34212
-6.20955
1.40558
6.20766
-2.66425
-31.498
-19.3228
18.7191
21.6362
28.5382
16.9943
1.06698
-11.1128
-17.5337
-22.0584
-13.4606
-7.19137
-14.2484
-11.6669
-10.0791
-8.3456
-13.0674
-11.0471
10.9584
12.1762
3.48816
-2.2686
-2.39898
-3.62254
-6.25
-7.1093
-7.45228
6.54973
16.1513
10.7022
14.2962
17.8827
34.1632
51.0525
48.0623
34.8399
7.93052
-17.5733
-35.5865
-30.1365
-22.2999
-45.0729
-42.3863
-32.3814
-29.2894
-13.591
-0.132947
1.2412
5.95257
8.51349
11.0958
16.7501
-0.482098
-13.0433
-11.7532
-5.25423
10.9297
29.2381
41.894
39.0599
27.4093
14.4665
-9.27211
-10.0923
-0.45175
-8.96757
2.0187
10.5539
11.8962
21.2766
9.88575
-4.96646
-22.8421
-33.3136
-34.7047
-13.3917
-5.1533
-10.1897
-22.8467
-21.6267
-6.15259
10.5644
15.568
7.45884
10.6774
12.9995
-1.02357
-12.783
-8.30287
-2.18863
-2.68054
-8.3094
-3.84939
-0.236472
7.51489
-1.26532
0.765981
3.36589
3.73779
5.86885
2.49092
7.09188
27.2857
17.2027
8.68112
4.92655
-1.99603
3.28502
4.88763
5.51141
14.349
13.2557
14.4448
2.21967
-8.4449
-19.8314
-34.1287
-32.0784
7.07593
21.0453
17.9842
15.8398
-14.2882
-25.1554
-30.4972
-20.1662
-9.68694
-13.5578
-13.5513
-14.0886
-9.08831
1.84984
-0.236078
-2.64332
0.679509
10.1077
21.3442
17.4433
-6.17853
-11.9629
-1.28297
7.49905
16.0787
42.654
37.5817
15.5368
4.66501
5.9375
3.70981
1.67441
3.92173
4.72082
-8.6369
-1.1749
-4.02916
-10.3211
3.56653
4.63512
-16.0392
-11.4399
-11.4694
-13.7022
-20.4369
-24.6923
-12.1391
1.93978
5.53106
-6.27693
-3.03967
11.6828
1.21591
-5.7657
-5.02284
-4.83386
-4.14423
-7.99657
-1.47207
7.51663
5.31262
-3.39255
-5.19926
-0.583255
9.6951
15.7085
6.16897
19.4985
43.8003
37.6018
9.52961
-7.7751
-10.265
-11.6672
-20.3555
-21.7789
3.91683
14.9826
1.59635
-7.66796
-5.39771
-2.09436
-0.759847
8.96062
17.841
2.57802
-4.18004
-14.6386
-28.4372
-23.7837
-24.0835
-19.29
-14.4865
-2.47761
21.7922
23.9896
7.11174
3.05367
-5.26968
6.19297
22.726
25.9078
20.6024
12.2478
3.899
3.36205
-6.69263
-14.2678
-26.1535
-26.0888
-8.88999
-5.77826
-5.6557
-3.38875
-2.23869
3.03093
19.6802
19.0388
24.7265
14.4716
-8.33166
-20.0437
-21.0325
-38.3134
-32.3745
-3.71094
4.88509
10.1957
21.9229
39.4843
57.0625
40.4212
-12.1804
-43.7108
-30.329
-5.61754
-12.425
-16.0132
-2.39952
18.5736
39.7092
29.0903
22.2221
18.0615
-4.63615
-19.4903
-22.3671
-22.665
-25.9726
-39.0399
-38.6859
-7.86466
34.0385
50.219
37.2388
15.142
-8.51198
-25.9541
-23.2809
-26.7923
-39.6858
-32.3609
-14.9925
-4.09242
7.62937
12.6408
10.3904
20.5681
30.9216
31.5521
14.018
-11.3279
-9.96565
14.085
27.9492
25.7669
28.32
23.8081
9.73963
-8.30627
-14.7957
-9.04145
-13.4364
-5.48445
-3.69327
-14.2924
-8.72883
-15.5701
-22.7916
-14.9509
-13.7835
-2.32918
8.74559
-4.04466
-16.3627
-17.6411
-8.86949
10.2234
3.10691
4.3007
11.7666
11.4451
14.0506
6.91905
5.95314
1.7688
-14.9071
-19.939
1.23441
8.33307
18.6221
18.0063
21.4516
41.8835
44.2094
17.5966
-21.9144
-28.2355
-35.56
-32.2394
-16.9157
4.72908
12.019
-1.43281
-27.8436
-38.9529
-16.8108
5.00917
-3.337
-0.980703
9.21278
10.0666
5.41589
-21.3824
-31.6333
-15.2163
16.4717
41.5604
57.9279
48.2348
18.9618
-4.53203
-5.54856
-2.1344
-9.87527
-6.55023
-0.124697
-15.7311
-23.6901
-22.6049
-7.22038
16.7756
18.7411
5.76351
-9.86251
-12.3122
-4.10225
-36.6013
-40.7771
-0.977498
14.2279
16.1151
4.85647
23.1008
89.0417
119.797
46.6142
-14.9081
-32.1334
-36.5924
-33.715
-20.2445
-20.8919
-19.371
-27.0088
-28.6565
-17.0286
-37.9699
-51.1983
-22.0938
-4.76479
7.00124
5.36239
-12.4027
-46.9269
-51.5688
20.839
56.6926
49.2885
51.6144
27.2917
0.483053
17.8297
25.0148
26.435
27.8034
14.9472
29.1966
36.6444
6.90947
-8.2872
-2.24641
15.8503
18.5699
26.1238
31.9961
27.8047
22.4903
-8.90697
-41.1165
-91.2586
-114.475
-97.0539
-59.4552
-30.7093
-20.805
-6.69562
16.7994
17.2567
-2.60448
-18.305
-21.8344
-21.6436
-12.971
-8.74323
-13.2241
-10.6978
27.6094
52.9881
57.2709
90.1466
113.206
80.0387
26.3653
7.85751
-13.9599
-31.676
-19.2509
0.293525
6.94226
26.4799
-4.0655
-33.4355
-22.4404
9.1184
36.7023
49.6977
-2.22664
-75.4198
-145.377
-127.633
-100.516
-63.057
13.8525
46.9327
50.1589
64.056
79.6912
72.0715
48.9009
38.4776
20.5356
31.1419
36.8994
-20.0853
-75.1742
-115.986
-117.662
-37.5017
55.7243
99.9541
138.991
116.261
42.196
-14.5105
-53.6632
-93.0474
-98.4328
-68.6772
-42.1639
-41.9684
-26.2665
-31.9472
-44.6033
-36.9332
-15.7491
58.2775
118.415
118.138
92.2584
38.8015
-23.4482
-32.7877
-19.9563
28.1641
68.7067
69.9902
38.6597
-46.3075
-80.5731
-58.7883
-36.5795
25.5373
47.1797
26.1693
9.6079
-68.4029
-105.197
-102.42
-78.3318
-34.3395
-14.5775
-1.3309
6.90421
-1.6686
33.146
65.1448
34.9075
31.0783
43.2764
36.5253
13.2566
-5.73461
9.59228
32.0475
38.8006
71.8712
82.1831
49.8026
23.1403
-24.499
-101.822
-134.558
-83.9277
-40.7315
-12.2193
-9.83868
-8.55166
1.84907
24.2337
55.4806
78.7977
75.1195
65.2732
8.06757
-56.0046
-112.886
-123.788
-72.1823
-9.33265
27.8042
79.5984
111.974
80.315
35.0746
2.87389
-50.5499
-57.2721
-41.8683
-44.2309
-64.4434
-62.0606
-59.7118
-73.25
-14.1505
49.8714
83.5053
94.2414
93.2785
74.0799
50.6919
23.9059
-19.2127
-31.2222
-36.2612
-48.334
-23.9737
9.40749
35.9823
41.3366
26.1319
9.35186
-6.74972
-8.34987
-13.2642
-38.8073
-47.6459
-42.0021
-16.1366
-14.2146
-15.1615
-12.0902
-2.31848
-0.878466
-1.75234
4.11869
24.736
21.0689
14.3893
10.1186
16.6352
9.39578
-1.71752
4.89434
13.0527
2.842
12.022
-1.67435
-15.0486
-24.8032
-43.567
-43.0979
-12.3234
7.45948
12.1479
8.08889
9.88389
41.5466
54.0619
39.55
36.1849
9.1094
-6.05298
-38.444
-54.6869
-31.8
-17.513
-6.43582
3.50987
4.72546
26.1482
60.2759
74.8896
35.7507
-16.6668
-64.7623
-71.3863
-67.3878
-49.49
-33.6382
-27.1528
6.45401
34.8141
48.7122
59.115
66.8999
71.0815
62.1785
25.7651
2.39323
-10.9688
-38.0828
-78.9709
-63.0519
-20.4778
12.7901
23.7431
9.93659
-1.654
-6.99247
-20.8784
-31.284
-30.3228
-20.8001
-14.9791
-25.7172
-36.754
-25.7113
-6.90577
13.5779
15.0996
14.4819
8.37261
-14.0386
-24.4533
8.35625
25.4714
33.3984
47.5789
72.0421
63.7037
43.3184
-4.58796
-44.9445
-25.9878
-18.3432
-13.6882
-4.68933
17.2689
15.3016
15.3376
14.9162
26.2903
34.7272
30.5153
-11.5755
-45.2172
-65.9277
-50.9478
-37.2558
-30.7034
-12.7326
8.56952
24.9886
10.8274
13.0408
6.33655
-8.37026
-27.3915
-26.6164
-19.7998
-1.01988
10.7298
12.1318
19.5693
24.7293
31.1424
38.5615
27.9093
-4.95391
-7.26082
8.49892
13.1485
23.0101
-1.24659
-27.9593
-7.11396
18.7774
-2.78303
-21.1446
-34.4581
-67.7968
-62.8399
-13.3906
20.2732
34.6562
25.2636
11.0742
12.4751
31.4195
30.3902
14.2299
-20.0997
-54.4167
-73.051
-50.0586
-21.5526
11.5306
9.666
17.316
24.2409
38.2895
37.1757
6.20087
17.6796
44.3292
48.8344
34.6226
10.1499
-13.2232
-33.5266
-49.4661
-38.2745
-18.4085
32.2313
44.3881
41.1895
11.2654
-5.33508
-9.5949
-6.18103
-14.216
-1.57222
9.2928
-2.26138
-14.1889
-21.4807
-19.3964
-24.1484
-45.2246
-37.1214
-11.4246
8.1538
18.3008
15.6903
16.0664
-15.9823
-59.273
-40.6811
1.18969
21.6997
29.0376
-20.3484
-36.392
-31.2771
-21.0048
11.9381
42.4204
40.5534
35.8157
34.1595
36.8956
38.8611
23.5736
7.37306
6.21051
15.8794
36.8804
40.8935
11.7201
-1.97947
5.19656
21.5795
8.4804
-20.3534
-31.6891
-40.3138
-27.5978
-5.42944
1.18446
-13.6756
-23.9028
-9.87233
-5.86093
-18.5739
-42.3233
-43.8502
-22.7873
-17.1929
-14.7313
-24.1322
-19.3546
-3.5699
3.15863
0.240114
-9.6294
-11.0702
1.56191
5.7397
17.1619
24.5078
20.4318
39.9562
70.4469
61.7176
44.08
19.6222
4.21598
6.33347
4.36587
6.22744
-7.55602
-10.4949
0.509605
-2.8299
-1.68967
-1.78527
-16.6342
-15.8235
-29.0577
-48.1701
-32.0868
-39.0347
-47.4815
-41.2678
-7.32704
8.7977
9.61613
19.7939
36.2988
37.7943
42.8185
43.8396
46.6692
41.9529
13.346
-6.68625
-28.7403
-52.2092
-26.6142
12.2486
21.4424
1.1127
-17.2332
-24.8328
-25.4379
-9.7324
-6.93814
-11.225
16.0475
24.9368
23.2618
12.8188
-21.6982
-48.681
-54.6693
-43.3792
-6.20571
12.5079
14.456
22.2095
20.1631
12.4283
10.3175
16.9346
17.4099
14.4604
23.1809
7.10282
-26.9766
-26.5963
-7.15334
7.50246
19.63
15.2844
31.1301
49.3472
21.8474
4.58401
-17.12
-37.0712
-37.2103
-12.4661
-3.66133
1.32425
9.12946
1.89723
-0.242814
7.64167
-2.05999
-14.7107
-30.0616
-45.1876
-32.7152
-4.81273
-2.59644
-4.49188
2.51251
9.32322
9.84226
37.1174
41.0402
7.63625
5.30008
15.5875
6.56035
-9.92562
-19.6569
-19.225
-7.81553
0.45982
2.86932
-2.86798
-9.54518
-0.00774014
3.42091
11.534
16.4609
13.1167
6.81982
-1.10433
-5.52785
-22.8035
-43.2665
-7.05888
45.0819
41.3439
24.7871
21.7408
4.00596
2.01928
-11.4549
-31.6742
-52.4264
-35.8953
-0.999773
34.1447
53.0865
33.4854
8.74694
-18.7749
-22.6327
4.33976
10.8844
-17.9277
-42.2237
-25.7416
-13.14
-16.0396
-16.6775
-9.06743
-0.408624
22.3236
34.0762
41.6037
26.7414
-21.0763
-39.4917
-27.0456
2.13366
25.1074
34.1486
13.4865
-2.90544
-8.87167
-27.8508
-26.3118
1.26183
10.1618
16.6151
16.8325
16.0196
5.46503
8.62522
1.04724
2.27877
13.3362
12.1449
1.92475
-10.4489
-24.2388
-31.3983
-12.2317
10.2845
3.32561
0.820152
7.1389
-8.0603
-8.81551
-10.4433
-17.3524
-19.0212
-7.12134
10.7007
23.9369
20.055
13.8506
8.83333
2.40213
1.12323
-9.717
-19.6314
8.57989
21.9622
14.6469
6.93834
-12.8597
-33.6501
-46.9821
-9.22384
19.4567
27.9056
19.6941
-2.50287
-10.5452
2.04469
-12.4203
-4.69764
3.4885
4.10865
10.2422
16.32
2.26234
-6.3746
-12.4339
-4.04686
20.8082
27.9522
20.1634
-7.86868
-21.4508
-21.1349
-9.79485
-1.55152
-6.48695
30.7611
36.3487
11.207
-11.71
-15.317
-4.12025
1.53355
-4.24998
-14.828
-5.8002
-6.29861
-17.9671
-14.9771
-7.19092
-34.9861
-33.8004
2.42773
27.0796
47.998
42.7073
-6.14818
-25.3705
-21.8033
-7.17857
2.53719
10.8214
7.7706
1.40425
8.74372
14.0752
9.46333
-0.735783
3.13134
11.1895
15.7113
7.65227
-10.8062
-20.2651
-21.3521
-19.892
-19.1066
-2.32599
18.3692
22.2761
18.6674
2.7884
-4.77694
-3.03233
-1.71038
-2.37703
9.56022
15.9877
9.21681
-0.297068
10.9719
1.78317
-23.7544
-31.4618
-13.5131
-1.54877
1.60753
0.322844
-8.72966
-7.6113
-7.87691
-10.5948
7.36968
17.5282
17.6418
14.1912
1.94506
-1.52669
-5.45641
-11.0309
-4.19877
7.23475
13.607
-1.04076
-15.6894
-17.0378
-14.1909
2.01233
14.6626
8.54301
24.5317
36.8894
17.986
-6.83339
-21.7543
-20.0138
-17.7543
-20.8655
-10.8591
12.2427
12.3191
0.235819
-5.29791
-15.8588
-11.8148
-1.44875
-2.99451
-13.9456
9.67181
20.4912
4.01873
34.8763
46.8653
22.2896
1.64489
-9.41614
-5.20274
14.6209
27.0878
12.3656
-9.09063
-14.9056
-19.6845
-11.1387
-9.73896
-8.26598
-5.18998
-8.59147
-47.0657
-57.9403
-39.4779
-47.1727
-40.3277
-18.0948
18.136
39.3324
29.387
11.4443
-9.86489
-13.1173
15.6506
29.6129
35.1315
43.4423
39.726
33.6535
44.8914
50.2268
31.2429
30.3874
2.12991
-40.2657
-56.5279
-33.5926
-16.0068
-14.4478
-20.3207
-11.8714
4.01215
1.74594
-7.60376
-7.16693
-5.10189
-0.429237
-9.83326
-25.4936
-24.5326
-14.8004
-6.2261
6.01523
19.908
27.3578
26.5752
5.46099
-18.9208
-20.9291
-4.47288
-4.4596
-4.72818
7.13488
9.15131
11.7739
8.02432
8.37399
29.3145
29.7433
-0.0985217
-15.5929
-9.03565
-4.49026
-14.6167
-23.9744
-3.48061
2.15669
9.76735
9.14967
-5.14819
-5.58068
-1.61238
12.3841
8.39438
-10.6611
-25.4044
-51.6346
-36.0739
-13.7349
-6.07251
-6.08973
4.42157
-0.701613
18.4607
39.4538
22.5495
19.7139
23.8587
32.2212
42.607
39.4465
39.3439
14.7835
-35.3109
-41.8983
-12.3017
6.90998
3.19086
-10.7432
-2.00218
-3.23882
-10.2507
-21.4443
-26.4173
-12.0594
-3.61572
12.6092
19.808
19.5363
8.39899
19.9918
11.4859
-4.31202
3.74089
-22.7206
-34.461
-36.2455
-46.5295
-41.0464
-44.6407
-38.9456
-22.1334
-9.31086
-6.29016
-4.90782
6.8994
7.03393
19.8761
25.6538
18.1253
6.27323
-8.44991
-20.6902
4.89088
51.6761
71.773
78.8572
68.885
66.392
58.6521
41.626
11.6856
5.80599
-2.66663
-14.1149
-27.6965
-29.5428
-38.0665
-49.5111
-58.6246
-51.3468
-37.3381
-17.0172
-11.6108
-7.40844
-10.736
-13.0521
-19.3135
2.5778
14.0956
11.3711
23.7553
25.655
28.4109
18.2651
11.4254
25.8584
-8.73468
-33.7645
-26.1244
-23.9585
-26.2025
-20.4093
-5.36385
-9.51535
-3.21666
8.07959
-5.77447
-42.7328
-31.1071
-7.92843
8.58675
9.05356
7.82286
25.9862
50.0834
55.0558
52.292
56.3809
43.0763
17.002
-8.78511
-24.5917
-32.6231
-15.1807
-5.47722
-0.726483
5.28229
-1.39864
-19.4031
-25.7351
-42.4803
-25.5905
-1.85185
-17.4553
-30.3411
-31.3277
-19.9263
9.8526
51.6131
59.1816
61.0163
54.3434
18.2937
-2.58791
-6.37706
-16.511
4.11718
20.1535
20.4535
0.214394
-11.2932
-12.1803
-24.699
-29.3576
-44.6322
-16.7269
-4.17081
-32.8038
-54.9488
-49.678
-35.0015
-9.72615
12.2091
1.16582
6.50884
16.7708
19.8385
30.1026
29.6631
31.7497
30.2872
29.6093
43.1437
54.3119
42.3137
-3.52465
-26.6026
-19.0544
-15.1759
-0.055461
1.94417
-7.44411
-13.211
-21.046
-19.8456
-11.7665
-19.9526
-2.40075
7.51298
1.02955
10.1277
8.51826
-9.18719
-22.5607
-27.1356
-39.2102
-31.5044
-22.2401
-12.2797
-12.0992
3.77993
45.483
61.455
52.3054
38.8446
19.7785
4.52946
-36.6571
-50.6074
-38.6025
-14.6401
-6.92649
-1.4378
17.7894
21.9988
23.9627
21.6894
15.759
10.9063
2.08569
-16.1889
-19.0739
-13.0068
3.64445
-1.47628
7.81683
12.1891
18.6224
30.7539
18.7063
2.55919
0.142596
-13.4314
-14.7434
11.8487
29.8876
17.9348
-1.20723
-7.67388
-19.1843
-23.4512
-42.082
-36.9721
-24.2644
-22.6153
-22.5235
-11.0227
-0.687046
-2.33832
8.60376
18.2381
4.25516
-3.34015
-4.49936
-13.4563
-12.1838
9.85042
8.38878
1.16539
13.4643
24.0543
20.4459
14.8276
14.6598
15.5786
21.1197
29.2045
28.4134
25.5659
7.38651
-11.0053
-4.69744
-15.0259
-24.3008
-45.2043
-47.7151
-32.5525
-15.2891
8.95242
35.4358
40.2384
25.0715
14.4775
5.80939
-16.6245
-42.6256
-51.0772
-32.2048
-22.1632
1.98566
8.73395
1.005
-1.13718
-5.88583
16.5973
32.0377
35.8781
53.511
37.1488
-6.8507
-33.7998
-34.3871
-25.2808
-2.74769
11.8223
15.9983
1.43868
-17.3372
-22.078
-14.5314
-2.40348
7.97536
16.4964
22.3131
30.6853
16.3103
16.112
15.4096
-4.51789
-22.1145
-22.213
-29.2693
-14.1721
-2.30603
-6.37474
3.74754
21.0205
17.3083
-2.73409
-2.98958
5.05942
-1.51226
18.4984
20.4895
1.99769
-4.53398
-23.9078
-52.0677
-19.4132
-0.403331
2.62407
2.16043
-1.41237
-5.16447
-3.0209
-5.19715
8.7276
12.0448
16.9901
10.3428
-6.93857
-9.73734
-3.44136
-0.422037
3.50952
4.52392
9.22219
19.2734
16.591
18.5124
23.2031
0.656769
-37.8185
-46.6404
-18.4703
10.6648
-6.35844
-15.4248
0.297671
19.3077
13.0524
-4.82012
10.7417
32.8039
33.0381
9.45571
-6.56839
0.602319
-9.92826
-6.2402
-15.3389
-8.61675
6.6209
4.44676
-10.0623
-28.5417
-43.3756
-30.0007
-18.0054
-12.3925
6.72515
27.0968
14.2043
-8.6588
-6.39973
14.1732
22.7155
30.7178
3.35543
-13.1844
-8.28874
9.02284
17.1281
11.9365
-1.86749
-7.45359
19.7762
39.214
31.4891
8.32102
-0.117797
9.06487
8.03515
-2.31894
-23.9958
-26.418
-24.691
-25.0544
-14.3767
-4.27682
-3.34472
-11.8242
-23.4924
-16.7629
-18.4578
-22.2075
-16.2522
0.0564997
22.286
29.7883
22.7352
19.3442
12.7582
10.8988
13.8502
3.38032
-3.15662
-29.489
-24.6545
-4.05821
2.11766
11.3662
20.371
14.6183
9.08355
10.4952
6.55367
-0.770843
-9.89403
-12.2265
-10.6164
-15.3757
-16.5978
-8.7091
-0.0576463
1.2362
9.80685
15.2782
12.5204
0.288495
7.00915
7.09837
5.97166
-3.29043
17.7245
34.5522
15.3879
-18.5296
-12.6835
0.55644
-5.82885
-15.071
-7.58596
-6.54082
-7.37016
-2.8254
-6.4074
-11.0516
-9.49639
-13.6265
-17.0792
-1.75317
12.0828
6.83671
-12.4464
-26.6675
-21.6737
5.81312
8.18757
23.8725
52.1672
41.7781
19.8238
28.096
23.8696
17.0462
-7.60613
-40.9461
-30.36
-18.7504
-16.0558
-16.0974
-22.7365
-11.1319
-10.0512
-7.7868
4.18323
-8.34436
-10.1757
-25.0476
-32.7123
8.48888
31.4681
17.007
13.5459
8.5917
17.6184
32.0051
27.5893
17.2413
9.16011
6.26758
2.03663
6.92384
13.3942
11.3744
-3.66198
-6.04072
-5.56585
-4.86828
-15.5084
-37.0245
-51.091
-40.9455
-28.8445
-22.4596
-15.144
-5.02533
0.732759
29.4163
40.3751
41.0207
42.6246
11.7955
-2.04347
27.3226
31.9379
13.7752
2.65434
-0.705385
-1.19058
-16.9209
-16.4287
-23.0377
-28.9113
-27.9998
0.435102
15.1891
3.44991
-6.45016
6.76069
6.70888
-14.4753
-18.0826
-13.6925
-25.3497
-2.65799
7.24112
8.78435
2.17742
-16.767
-5.01583
8.55313
-3.66791
8.58868
23.276
27.8818
38.3263
28.8292
-5.83819
-22.4047
-42.8449
-21.7926
9.41214
5.34967
-9.72211
-19.645
0.785853
15.6698
16.0223
24.5158
22.1899
20.7771
23.1302
7.21275
-1.19914
-9.83735
-27.0255
-31.5008
4.00495
3.43493
5.76037
5.71207
1.56141
14.4784
14.9298
-4.54131
-22.183
-21.0332
-8.12815
-15.9212
-25.4632
-31.28
-26.6349
-39.5472
-33.5717
-6.88717
5.93142
16.9186
5.55281
6.1924
23.8043
16.4056
27.0432
36.6186
34.8365
29.4296
23.3515
6.40473
-6.16564
-7.65286
13.0594
15.2786
9.7812
12.4257
13.6373
-10.8362
-16.5626
-19.9796
-28.0594
-14.8783
-7.87148
0.333631
-8.3416
-9.7
-5.21744
0.456083
-6.50183
-12.3997
3.28589
14.3699
-2.90752
-19.1761
-21.3358
6.62479
16.9263
4.09021
-7.84898
5.3085
22.8835
20.0705
20.0116
10.1833
3.33834
-13.3869
-20.8626
-28.0858
-17.3262
-6.55646
-12.7156
-8.41293
5.94128
24.4228
34.5063
7.8913
-12.9755
-10.6395
-7.60696
-0.15723
-1.65496
-4.9115
3.15826
10.0809
10.8295
11.4128
12.5658
8.19649
0.341129
-2.01921
-17.7137
-28.1048
-17.7615
-16.1485
-7.24181
10.1213
23.7959
19.2839
5.24984
-8.5615
-4.1412
3.19679
-4.32975
-4.09758
-9.28053
-14.3858
-21.4232
-27.4577
-20.7423
21.1944
47.9032
39.5872
21.239
16.792
11.9435
14.3615
13.9715
20.5562
22.9824
8.35625
-13.5786
-34.8769
-39.4967
-36.5276
-35.7678
-8.49928
6.20143
13.1921
12.8712
-11.1692
-24.0861
-10.6198
4.97311
6.286
1.24343
5.35563
3.03671
-4.23909
0.387723
1.23752
-2.91832
-2.75288
5.22075
21.1292
24.8319
6.10253
2.13162
15.5514
16.7025
-9.31813
-19.0898
-14.0282
-12.3695
-6.46039
-6.2052
-8.04402
-5.37443
-10.4233
-11.2094
-0.830867
12.2775
21.4011
6.73778
-13.0796
-0.678739
8.74098
21.2311
26.6424
30.8482
31.2535
14.1101
-0.7529
-15.6682
-23.0859
-20.0189
-32.0838
-33.6441
-11.5341
1.35798
-4.95234
-10.5423
-7.85569
-1.3797
-6.62967
-8.6633
-3.42719
-7.48884
-9.21696
-12.4186
-7.26038
2.44657
-4.96484
7.00577
19.7144
12.4345
21.6467
32.1526
26.3076
38.3107
44.7966
42.7201
17.5319
-6.97797
5.57365
-0.570378
-19.6795
-28.1887
-30.5865
-26.9505
-30.7839
-13.836
15.1414
15.8672
3.28951
-3.5393
-11.8291
-21.319
-24.3277
-29.17
-31.4155
-16.0032
-5.9605
-0.844715
-4.9796
-17.352
-20.3335
-6.01183
4.38049
22.1716
40.4104
39.5886
31.5786
22.3371
9.43949
11.9967
9.89802
13.723
9.6998
-4.288
1.28447
6.43199
13.3338
8.57848
-7.01443
4.63067
26.2331
26.701
11.1369
-27.3517
-38.5437
-31.4319
-27.8918
-33.2942
-35.0789
4.29263
20.3917
-7.92823
-26.415
-14.1042
-0.698848
0.382944
-0.24727
14.3806
16.1216
1.72526
-6.98654
-8.01411
-2.13324
8.02421
-0.04683
5.58818
9.36802
1.8336
1.94442
-8.35489
-6.88161
8.13586
-0.638753
12.0612
27.5718
24.1761
32.6911
34.436
15.7378
1.56717
-22.6383
-29.832
-21.7852
-12.1212
-3.55357
-10.9386
-7.18599
2.97363
1.21528
-10.0171
1.78895
-2.02944
11.7456
7.69338
-8.0461
-26.433
-41.9355
-47.6419
-15.0219
20.0137
28.2258
28.4942
28.9784
18.7569
5.99639
-6.87224
-18.1185
-13.5395
33.2331
53.4549
40.3938
20.3197
5.59708
-12.9085
-28.6474
-43.0077
-42.1764
-17.0911
-10.7717
0.698864
16.5055
3.05976
2.79379
-11.5502
-20.3845
-2.7794
13.3987
16.0836
-6.00741
-20.2819
-20.1022
-15.8283
5.75816
14.6507
20.9781
24.2409
17.7345
6.63269
0.466417
-11.8201
-9.35249
-3.66531
-7.57922
4.47018
17.3823
15.2267
12.8422
-1.0817
1.03733
4.70023
2.57217
0.76011
-11.364
-10.7445
-13.0322
-5.5896
1.37143
2.65991
10.6715
2.15587
0.284583
4.57116
-2.87113
-0.506503
-8.09408
-4.63714
-1.36353
4.03003
-0.15756
-7.20205
-9.93787
-1.39416
-3.82351
-13.3682
-10.6055
10.8843
14.0279
7.91828
2.50427
1.14175
4.18475
-2.30828
-8.19237
11.2476
19.2896
10.089
-1.94746
2.83632
-1.93347
-13.5851
-28.9859
-23.6439
-9.52734
7.18132
9.01257
-10.6544
-13.0851
-11.0953
-9.42562
-3.87353
-2.53481
11.4917
16.7129
13.2024
15.456
9.06798
6.25774
1.89546
5.75262
9.90611
13.1032
15.3529
12.6137
7.42091
3.28496
-2.39118
6.75578
4.69727
0.124713
-2.61394
-7.24692
-13.6482
-15.8526
-22.3684
-1.80501
-0.423677
-2.11794
3.22803
-4.25304
-7.53575
-4.49859
-6.39107
0.0286852
-1.48088
3.26358
2.05296
-2.24553
-0.964055
-6.64678
-12.465
-9.73062
-9.53736
-1.9687
2.73191
-2.10883
8.27122
16.6646
1.06152
-3.40066
14.5734
27.4718
19.6335
9.74272
11.2544
5.45403
3.23547
-7.94515
-16.1941
-8.8118
-3.686
-3.64413
-0.452488
-4.35799
-24.144
-24.4965
-14.1311
-8.57845
4.93751
1.6707
-0.305233
-0.447001
7.20394
4.84103
-18.7342
-28.6323
-4.84976
11.3849
6.84555
2.64076
27.519
54.4948
27.6944
8.18556
22.431
8.2592
-6.0822
-14.7184
-9.13143
8.876
7.79225
-3.58468
5.82383
7.98085
12.4013
14.6234
2.81332
-16.8699
-34.7663
-58.2683
-76.2166
-56.8695
0.463122
34.6295
48.537
55.0637
45.2171
40.2104
13.8903
-8.80488
-9.69215
-30.2625
-52.6437
-50.7451
-39.7311
-60.5239
-63.0714
3.61152
83.6796
106.608
84.3252
20.4296
8.57046
38.5069
7.48628
-30.4676
-44.348
-70.3933
-52.5614
-16.0083
-1.79227
3.23224
-15.2989
-19.5997
10.5448
43.7295
44.6988
5.87145
-23.5612
-10.3904
-13.6452
-15.2411
-16.2762
-22.3919
-1.87235
4.9806
19.477
38.8732
43.7215
12.1472
